1540452511.00
64.000000
-0.00
-0.00
-0.00
-0.00
-0.00
-0.00
-0.00
-0.00
-0.00
-0.00
0.00
0.01
0.01
-0.00
-0.03
-0.05
-0.05
0.00
0.13
0.36
0.66
1.01
1.37
1.72
2.06
2.40
2.79
3.24
3.80
4.42
5.06
5.66
6.20
6.68
7.15
7.68
8.31
9.14
10.09
11.04
11.88
12.56
13.14
13.76
14.65
15.96
17.91
20.32
22.90
25.38
27.58
29.57
31.68
34.32
37.81
42.54
48.15
54.10
59.83
64.97
69.58
74.14
79.34
85.71
93.76
103.00
112.62
121.73
129.77
136.75
143.30
150.75
157.77
166.64
177.95
191.79
206.97
220.57
228.25
225.36
208.53
176.87
132.76
80.05
23.07
-34.94
-92.44
-149.16
-205.23
-260.37
-313.74
-363.87
-409.83
-450.91
-486.50
-515.74
-537.23
-549.22
-549.96
-538.37
-514.21
-478.67
-433.88
-382.45
-327.02
-269.84
-212.63
-156.66
-102.95
-52.37
-5.90
35.58
71.43
101.35
125.50
144.38
158.69
169.15
176.37
180.75
182.57
182.07
179.51
175.23
169.65
163.18
156.15
148.81
141.30
133.69
126.02
118.33
110.69
103.16
95.80
88.68
81.83
75.25
68.95
62.95
57.25
51.86
46.78
42.03
37.59
33.45
29.61
26.07
22.81
19.83
17.11
14.67
12.48
10.54
8.83
7.35
6.07
4.97
4.05
3.27
2.62
2.09
1.65
1.30
1.01
0.79
0.61
0.48
0.37
0.29
0.24
0.20
0.18
0.17
0.18
0.19
0.21
0.24
0.27
0.31
0.36
0.40
0.45
0.49
0.54
0.59
0.65
0.70
0.76
0.82
0.89
0.96
1.05
1.14
1.24
1.35
1.48
1.62
1.79
1.97
2.17
2.40
2.65
2.92
3.23
3.56
3.93
4.33
4.76
5.23
5.74
6.29
6.88
7.51
8.18
8.90
9.66
10.47
11.33
12.23
13.18
14.17
15.23
16.35
17.54
18.78
20.07
21.37
22.62
23.75
24.66
25.24
25.35
24.90
23.75
21.85
19.15
15.69
11.51
6.81
1.78
-3.30
-8.19
-12.65
-16.50
-19.63
-21.98
-23.53
-24.29
-24.35
-23.78
-22.66
-21.16
-19.42
-17.62
-15.89
-14.31
-12.89
-11.61
-10.40
-9.20
-7.99
-6.85
-5.91
-5.28
-4.97
-4.87
-4.89
-4.79
-4.41
-3.72
-2.89
-2.22
-2.01
-2.35
-3.10
-4.15
-5.15
-5.77
-5.94
-5.93
-6.23
-7.31
-9.35
-12.10
-15.49
-18.99
-22.10
-24.61
-26.68
-28.80
-31.66
-36.00
-42.49
-51.91
-63.73
-76.12
-86.24
-91.10
-88.76
-79.19
-64.50
-44.61
-22.81
-2.48
14.05
25.88
33.16
36.56
36.79
34.53
30.59
25.43
19.93
14.97
11.04
8.06
5.55
2.93
-0.17
-3.67
-7.60
-11.54
-15.05
-17.93
-20.41
-23.00
-26.34
-30.77
-36.04
-41.52
-45.94
-47.81
-46.08
-40.39
-31.20
-19.48
-6.37
7.15
20.21
32.22
42.74
51.44
58.04
62.47
64.81
65.32
64.32
62.15
59.22
55.96
52.77
49.84
47.16
44.52
41.55
37.93
33.46
28.15
22.17
15.92
10.03
5.26
2.36
1.84
3.75
7.53
12.20
16.60
19.80
21.27
21.04
19.42
16.87
13.81
10.54
7.36
4.50
2.22
0.67
-0.16
-0.43
-0.41
-0.30
-0.27
-0.34
-0.49
-0.80
-1.39
-2.51
-4.32
-6.88
-9.94
-12.96
-15.21
-15.94
-14.70
-11.50
-6.80
-1.40
3.83
8.20
11.34
13.21
14.02
14.04
13.55
12.72
11.63
10.31
8.70
6.72
4.31
1.55
-1.40
-4.23
-6.61
-8.30
-9.17
-9.39
-9.33
-9.51
-10.42
-12.26
-14.86
-17.60
-19.59
-19.96
-18.18
-14.30
-8.94
-3.09
2.23
6.30
8.81
9.83
9.62
8.54
6.90
5.02
3.14
1.52
0.29
-0.53
-1.04
-1.40
-1.73
-2.03
-2.29
-2.48
-2.66
-3.02
-3.76
-5.09
-7.03
-9.35
-11.62
-13.25
-13.65
-12.43
-9.53
-5.19
0.06
5.48
10.33
13.97
16.06
16.54
15.69
13.98
11.92
9.93
8.20
6.74
5.40
4.00
2.43
0.70
-1.09
-2.75
-4.10
-5.01
-5.49
-5.80
-6.32
-7.41
-9.24
-11.60
-13.91
-15.36
-15.22
-13.12
-9.22
-4.13
1.28
6.17
9.98
12.44
13.59
13.59
12.66
10.99
8.81
6.39
4.00
1.85
0.03
-1.55
-3.06
-4.59
-6.09
-7.34
-8.10
-8.31
-8.18
-8.14
-8.71
-10.14
-12.28
-14.53
-16.07
-16.10
-14.23
-10.54
-5.62
-0.23
4.82
8.94
11.80
13.33
13.60
12.76
10.96
8.42
5.42
2.40
-0.24
-2.19
-3.39
-4.03
-4.47
-5.02
-5.85
-6.89
-7.99
-9.05
-10.15
-11.46
-13.05
-14.73
-15.97
-16.13
-14.67
-11.44
-6.82
-1.55
3.49
7.58
10.38
11.96
12.61
12.66
12.27
11.42
10.04
8.12
5.81
3.42
1.20
-0.69
-2.26
-3.61
-4.79
-5.76
-6.42
-6.85
-7.31
-8.19
-9.71
-11.77
-13.80
-14.90
-14.30
-11.61
-7.10
-1.52
4.19
9.23
13.14
15.83
17.39
17.95
17.59
16.38
14.47
12.16
9.75
7.51
5.54
3.81
2.24
0.77
-0.53
-1.58
-2.33
-2.89
-3.46
-4.33
-5.66
-7.41
-9.22
-10.48
-10.57
-9.01
-5.78
-1.29
3.70
8.36
12.04
14.40
15.47
15.42
14.53
13.04
11.13
9.01
6.85
4.79
2.88
1.16
-0.38
-1.69
-2.70
-3.35
-3.69
-3.83
-3.98
-4.36
-5.13
-6.37
-8.04
-9.90
-11.46
-12.08
-11.18
-8.40
-3.95
1.49
6.91
11.39
14.36
15.77
15.90
15.17
13.89
12.23
10.26
8.07
5.81
3.72
1.95
0.65
-0.21
-0.67
-0.85
-0.90
-0.95
-1.15
-1.66
-2.61
-4.10
-6.10
-8.35
-10.36
-11.49
-11.15
-9.06
-5.39
-0.73
4.09
8.33
11.47
13.36
14.04
13.72
12.59
10.88
8.82
6.65
4.57
2.72
1.17
-0.11
-1.13
-1.91
-2.44
-2.71
-2.77
-2.70
-2.68
-2.93
-3.71
-5.15
-7.13
-9.19
-10.61
-10.67
-8.87
-5.27
-0.40
4.83
9.56
13.15
15.38
16.28
16.09
15.04
13.35
11.25
8.96
6.73
4.70
2.88
1.24
-0.34
-1.86
-3.24
-4.33
-5.00
-5.26
-5.30
-5.43
-5.96
-7.09
-8.70
-10.42
-11.64
-11.80
-10.54
-7.92
-4.34
-0.45
3.08
5.83
7.58
8.37
8.31
7.55
6.26
4.63
2.89
1.27
-0.13
-1.33
-2.47
-3.69
-5.00
-6.24
-7.18
-7.64
-7.65
-7.44
-7.36
-7.72
-8.69
-10.18
-11.93
-13.48
-14.31
-13.98
-12.23
-9.18
-5.26
-1.14
2.53
5.31
7.11
8.09
8.56
8.70
8.55
8.06
7.16
5.92
4.48
3.04
1.74
0.61
-0.38
-1.25
-1.98
-2.52
-2.84
-3.00
-3.20
-3.71
-4.77
-6.40
-8.38
-10.21
-11.31
-11.18
-9.55
-6.56
-2.62
1.65
5.62
8.81
10.98
12.11
12.30
11.73
10.57
9.05
7.38
5.80
4.47
3.41
2.57
1.78
0.91
-0.06
-1.04
-1.88
-2.43
-2.67
-2.71
-2.71
-2.90
-3.44
-4.43
-5.79
-7.24
-8.34
-8.58
-7.55
-5.15
-1.66
2.35
6.18
9.27
11.29
12.24
12.32
11.72
10.60
8.99
7.01
4.80
2.70
1.02
0.00
-0.34
-0.22
0.02
0.07
-0.24
-0.91
-1.80
-2.76
-3.77
-4.90
-6.27
-7.98
-9.92
-11.79
-13.07
-13.28
-12.08
-9.52
-5.99
-2.13
1.46
4.34
6.35
7.53
8.05
8.07
7.66
6.86
5.69
4.25
2.70
1.26
0.16
-0.46
-0.64
-0.57
-0.56
-0.87
-1.67
-2.86
-4.28
-5.75
-7.23
-8.75
-10.34
-11.88
-13.08
-13.58
-13.09
-11.56
-9.15
-6.19
-3.01
0.15
3.09
5.63
7.50
8.38
7.99
6.32
3.67
0.66
-1.94
-3.58
-4.01
-3.36
-1.89
0.25
3.21
7.35
12.94
19.96
27.87
35.72
42.36
46.74
48.22
46.86
43.55
39.89
37.79
38.70
43.03
49.86
57.26
63.10
65.86
65.03
60.98
54.47
46.18
36.54
25.88
14.80
4.25
-4.64
-10.81
-13.72
-13.48
-10.80
-6.84
-3.13
-1.47
-3.57
-10.65
-22.92
-39.26
-57.19
-73.07
-82.64
-81.83
-67.85
-40.06
-0.58
45.97
93.50
136.16
169.62
191.94
203.20
204.57
197.36
182.84
162.77
139.94
117.73
98.45
81.42
62.71
36.93
0.68
-44.55
-91.72
-130.90
-153.74
-157.40
-145.62
-126.57
-108.61
-96.76
-91.33
-89.29
-86.90
-82.02
-74.86
-67.53
-62.86
-63.29
-69.97
-82.39
-98.29
-114.09
-125.41
-128.00
-118.80
-96.85
-63.68
-23.10
19.81
59.98
93.70
119.28
137.12
149.02
157.28
163.82
169.71
175.10
179.61
182.81
184.52
184.56
182.44
176.94
166.06
147.70
120.75
86.31
48.10
11.57
-18.11
-38.21
-49.72
-56.83
-65.06
-78.60
-98.56
-122.96
-148.17
-170.99
-190.12
-205.78
-218.57
-228.28
-233.47
-231.89
-221.52
-201.54
-172.79
-137.84
-100.22
-63.60
-30.93
-3.89
17.57
35.20
51.63
69.29
88.64
108.31
125.81
138.81
145.90
147.06
143.35
135.64
123.82
105.20
77.21
39.57
-4.62
-49.68
-89.38
-118.91
-137.29
-147.17
-156.10
-170.32
-191.26
-215.27
-236.63
-251.18
-257.65
-259.22
-260.97
-271.97
-297.36
-335.05
-376.58
-411.00
-428.75
-423.15
-394.03
-346.60
-295.92
-256.31
-234.76
-229.44
-233.08
-237.79
-237.55
-232.24
-190.47
-101.71
18.32
138.51
236.36
306.65
347.81
370.93
381.35
382.70
374.03
357.27
340.83
332.46
335.41
347.47
364.63
381.64
395.07
398.33
386.44
358.26
316.67
267.42
217.46
174.33
142.39
122.84
110.90
100.77
89.36
77.31
67.80
64.21
68.63
79.65
93.30
103.03
103.32
92.25
71.76
46.26
20.40
-2.47
-21.62
-38.15
-54.36
-71.82
-90.41
-108.52
-123.87
-134.56
-139.64
-139.31
-134.45
-126.13
-115.21
-102.28
-87.80
-72.41
-57.11
-43.38
-32.84
-26.85
-25.94
-29.59
-36.25
-43.81
-50.23
-53.96
-54.20
-50.80
-44.18
-35.19
-25.05
-15.33
-7.64
-3.24
-2.60
-5.17
-9.52
-13.66
-15.55
-13.56
-6.98
3.60
16.04
26.86
32.06
28.31
14.28
-8.82
-37.56
-67.36
-93.79
-113.53
-124.65
-126.56
-119.60
-104.93
-84.48
-60.91
-37.03
-15.28
3.01
17.76
29.80
40.18
49.39
57.13
62.49
64.50
62.75
57.68
50.54
42.97
36.54
32.25
30.45
30.71
31.95
32.54
30.81
25.55
16.65
5.46
-5.52
-13.53
-16.74
-15.19
-10.79
-6.52
-5.08
-7.81
-14.43
-23.56
-33.57
-43.16
-51.43
-57.33
-59.53
-56.39
-46.81
-30.91
-10.50
11.31
31.08
46.08
55.02
57.93
55.75
49.68
40.94
30.80
20.79
12.70
8.18
8.28
13.08
21.76
33.00
45.55
58.34
70.23
79.68
84.53
82.65
72.89
56.00
34.92
13.92
-2.90
-13.14
-16.84
-16.31
-14.95
-16.06
-21.79
-32.91
-48.86
-67.97
-87.61
-104.33
-114.39
-114.57
-103.22
-81.16
-51.56
-19.19
11.06
35.35
51.71
59.98
61.17
56.91
48.88
38.62
27.41
16.26
6.13
-2.04
-7.16
-8.06
-3.78
5.95
20.21
36.62
51.71
61.74
63.83
56.99
42.54
23.84
5.25
-9.28
-17.30
-18.62
-15.09
-9.88
-6.41
-7.46
-14.48
-27.35
-44.28
-62.14
-77.04
-85.23
-84.10
-72.98
-53.54
-29.34
-4.83
15.98
30.54
38.26
40.06
37.74
33.18
27.86
22.90
19.20
17.56
18.59
22.43
28.58
35.85
42.85
48.44
52.03
53.41
52.47
48.68
41.46
30.83
17.84
4.41
-7.21
-15.19
-18.82
-18.71
-16.89
-15.94
-18.26
-25.61
-38.91
-57.97
-81.02
-104.57
-123.93
-134.97
-134.80
-122.51
-99.42
-69.08
-36.12
-5.04
20.95
40.32
51.22
53.22
47.83
38.11
27.07
16.77
8.21
1.86
-1.95
-6.39
-13.57
-22.47
-29.35
-30.79
-25.88
-16.19
-4.82
4.98
5.02
-9.69
-37.08
-68.75
-95.45
-111.49
-115.70
-110.64
-101.07
-100.43
-119.87
-162.63
-223.83
-296.12
-373.72
-452.55
-529.25
-554.49
-499.32
-374.48
-223.32
-86.42
16.94
84.25
121.08
136.01
138.55
129.06
107.65
78.52
49.93
29.46
20.95
25.08
37.82
59.16
81.31
96.59
101.89
99.15
91.43
80.36
66.30
49.80
32.76
13.68
-7.78
-29.30
-46.81
-57.22
-59.76
-56.40
-49.94
-42.64
-38.36
-39.77
-47.27
-59.03
-72.11
-83.26
-89.37
-87.86
-77.23
-58.90
-35.96
-12.02
9.89
27.78
40.78
48.88
52.55
52.23
47.94
39.85
28.84
16.94
6.66
0.32
-0.87
2.91
10.68
21.57
35.25
51.49
68.70
83.08
89.14
81.98
60.23
27.70
-7.59
-36.63
-53.27
-56.55
-50.33
-40.56
-32.30
-27.82
-26.88
-28.20
-31.00
-35.27
-40.99
-47.02
-50.79
-49.14
-39.76
-22.11
2.06
29.69
57.65
83.86
107.52
128.85
148.20
165.51
180.28
191.95
200.60
207.36
214.45
224.60
240.02
261.28
286.75
312.88
335.25
350.00
354.95
349.80
335.61
314.01
286.59
254.96
221.05
187.33
156.57
131.02
111.62
97.66
87.11
77.50
66.84
54.10
39.28
23.19
7.23
-7.06
-18.17
-25.05
-27.35
-25.48
-20.46
-13.58
-6.00
1.42
8.10
13.48
16.84
17.27
13.93
6.49
-4.54
-17.71
-30.89
-41.72
-48.26
-49.42
-45.20
-36.53
-24.99
-12.39
-0.65
8.36
13.02
12.27
6.04
-4.50
-17.11
-29.03
-37.86
-42.24
-42.21
-38.98
-34.44
-30.60
-29.23
-31.70
-38.77
-50.28
-64.82
-79.66
-91.18
-95.90
-91.53
-77.91
-57.11
-32.74
-8.77
11.72
27.14
37.31
42.81
44.27
42.07
36.46
28.08
18.20
8.75
1.80
-1.09
0.59
6.24
14.46
23.41
31.31
36.69
38.48
36.21
30.23
21.77
12.90
5.94
2.91
4.79
11.14
20.22
29.50
36.43
39.18
37.03
30.45
20.78
9.96
0.17
-6.45
-8.18
-4.16
5.14
17.78
30.84
41.37
47.54
49.36
48.45
47.01
46.51
46.88
46.71
44.33
38.94
31.19
22.85
15.75
10.93
8.25
6.81
5.63
4.26
2.82
1.60
0.67
-0.44
-2.55
-6.48
-12.57
-20.60
-29.86
-39.59
-49.19
-58.40
-67.25
-75.86
-84.30
-92.53
-100.43
-107.89
-114.67
-120.49
-125.09
-128.48
-131.09
-133.68
-136.98
-141.06
-144.88
-146.26
-142.46
-131.16
-111.61
-85.18
-55.36
-26.80
-4.10
9.42
12.40
5.83
-7.22
-22.10
-33.43
-36.30
-27.67
-7.43
21.13
51.88
77.55
91.87
91.55
77.12
52.63
24.19
-1.94
-21.05
-30.93
-32.01
-26.84
-19.17
-13.14
-12.49
-19.80
-35.69
-58.16
-82.63
-102.85
-112.84
-108.93
-91.10
-62.83
-29.48
3.73
33.18
57.17
75.28
87.43
93.59
94.07
90.18
84.35
79.39
77.22
77.76
78.95
77.73
71.53
59.34
41.97
21.43
0.23
-19.15
-34.61
-44.55
-48.33
-46.60
-41.35
-35.21
-30.49
-28.24
-28.13
-29.16
-30.78
-33.59
-39.19
-49.25
-64.56
-84.32
-106.00
-125.76
-139.44
-143.80
-137.69
-122.70
-102.58
-81.71
-63.22
-47.74
-33.56
-18.19
-0.21
19.63
38.72
54.14
64.46
70.45
74.42
78.51
83.18
86.70
86.13
78.96
64.59
44.83
23.22
3.76
-10.39
-17.69
-18.54
-14.88
-9.51
-5.15
-3.47
-4.57
-7.13
-9.24
-9.71
-8.81
-8.32
-10.66
-17.68
-29.69
-45.21
-61.17
-73.79
-79.65
-76.88
-65.87
-49.25
-30.86
-14.09
-0.56
10.44
20.97
32.73
45.56
57.27
64.80
66.17
61.90
55.00
49.41
47.73
49.77
52.60
52.20
45.53
32.07
13.88
-5.40
-21.94
-32.86
-36.78
-33.94
-26.16
-16.38
-7.89
-3.13
-2.78
-5.61
-9.34
-12.25
-14.43
-17.90
-25.48
-39.01
-58.09
-79.88
-100.01
-114.12
-119.16
-114.12
-99.93
-78.83
-53.41
-25.78
2.77
31.50
59.48
85.00
105.59
118.77
123.31
120.19
112.42
103.90
97.54
93.84
90.74
84.72
72.55
52.96
27.32
-0.69
-26.20
-44.62
-52.98
-50.74
-39.90
-24.29
-8.20
5.16
14.44
20.13
23.50
25.32
25.27
22.13
14.78
3.09
-11.77
-27.78
-42.75
-55.02
-63.80
-69.00
-71.00
-70.17
-66.43
-59.02
-46.76
-28.63
-4.70
23.28
51.92
77.14
95.41
105.02
106.61
102.77
97.03
92.42
90.22
89.59
88.08
82.98
72.79
58.01
40.85
24.20
10.27
-0.07
-7.17
-11.92
-15.06
-16.76
-16.77
-14.80
-10.80
-5.11
1.54
8.02
12.90
14.56
11.63
3.44
-9.57
-25.55
-41.54
-54.25
-61.01
-60.73
-54.09
-43.05
-29.91
-16.23
-2.56
11.15
24.69
36.80
45.47
48.94
47.01
41.80
37.05
36.55
42.08
52.35
63.27
69.71
67.46
55.12
34.53
10.08
-12.90
-29.80
-38.13
-38.01
-31.88
-23.51
-16.45
-12.64
-11.70
-11.34
-8.73
-2.16
7.85
18.62
26.52
28.49
23.09
10.72
-6.56
-25.66
-43.06
-55.45
-60.46
-57.37
-47.32
-32.90
-17.08
-2.07
11.27
22.99
33.14
41.02
45.21
44.52
39.10
30.85
22.62
16.77
13.91
12.70
10.67
5.56
-3.59
-16.02
-29.77
-42.45
-51.91
-56.74
-56.49
-51.77
-44.13
-35.66
-28.27
-22.96
-19.58
-17.19
-14.96
-12.93
-12.32
-14.99
-22.35
-34.48
-49.56
-64.20
-74.52
-77.47
-72.03
-59.59
-43.37
-27.06
-13.20
-2.21
7.42
17.99
30.97
45.95
60.78
72.54
79.22
80.59
78.07
73.52
67.87
60.55
50.15
35.82
18.61
1.71
-10.83
-16.00
-13.53
-6.16
1.64
5.73
4.21
-2.03
-9.98
-16.13
-18.04
-15.16
-8.74
-1.09
5.43
9.08
8.93
4.77
-3.25
-14.56
-27.93
-41.34
-52.20
-58.02
-57.23
-49.90
-37.58
-22.60
-7.13
7.53
21.06
33.63
45.17
55.01
62.03
65.18
64.19
59.94
54.04
48.14
43.05
38.38
32.79
24.96
14.54
2.69
-8.24
-15.84
-18.83
-17.81
-15.01
-13.27
-14.74
-20.02
-27.95
-36.31
-42.64
-45.21
-43.40
-37.88
-30.33
-23.01
-18.30
-18.03
-22.96
-32.31
-43.81
-54.47
-61.58
-63.68
-60.92
-54.58
-46.12
-36.40
-25.37
-12.51
2.44
18.84
35.23
49.70
60.75
67.82
71.39
72.39
71.40
68.20
62.01
52.25
39.47
25.73
14.00
6.89
5.24
7.44
10.04
9.29
3.00
-8.41
-22.02
-33.81
-40.36
-40.25
-34.38
-25.30
-15.91
-8.29
-3.37
-1.28
-2.04
-6.07
-13.75
-24.62
-36.82
-47.14
-52.23
-50.08
-41.09
-27.88
-14.12
-2.76
5.18
10.72
15.99
22.85
31.80
41.80
50.92
57.31
59.87
58.38
53.14
44.76
34.06
22.41
11.78
4.51
2.36
5.57
12.29
19.03
21.94
18.46
8.33
-6.28
-21.81
-34.72
-42.68
-45.07
-42.80
-37.55
-31.19
-25.41
-21.67
-21.19
-24.73
-32.07
-41.78
-51.40
-58.28
-60.60
-58.06
-51.68
-43.08
-33.50
-23.22
-11.85
0.81
14.08
26.22
35.03
38.84
37.29
31.48
23.11
13.69
4.02
-5.55
-14.35
-20.90
-23.08
-19.18
-9.01
5.42
20.34
31.52
35.74
31.97
21.39
7.03
-7.39
-18.46
-23.97
-23.50
-18.54
-11.96
-7.05
-6.35
-10.65
-18.96
-28.98
-37.97
-43.69
-44.85
-41.41
-34.26
-24.98
-15.24
-6.40
0.94
7.03
12.74
19.04
26.36
34.33
41.73
47.06
49.30
48.44
45.39
41.24
36.49
30.68
22.85
12.43
0.12
-12.02
-21.32
-25.59
-24.11
-17.76
-8.58
1.10
9.25
14.51
16.21
14.48
10.17
4.83
0.27
-2.10
-1.91
-0.12
1.31
0.14
-5.23
-15.05
-27.88
-41.07
-51.63
-57.28
-57.16
-51.92
-43.06
-32.09
-19.88
-6.63
7.49
21.63
34.03
42.48
45.49
43.30
38.06
32.80
29.85
29.51
29.99
28.54
23.05
13.33
1.23
-10.41
-19.16
-23.98
-25.27
-24.30
-22.28
-19.94
-17.50
-15.05
-12.66
-10.61
-9.08
-8.07
-7.52
-7.65
-9.19
-13.27
-21.08
-33.06
-48.29
-64.37
-78.06
-86.44
-87.85
-82.33
-71.23
-56.31
-38.97
-20.02
-0.07
19.83
37.95
52.18
60.83
63.49
61.24
56.19
50.42
45.05
39.92
34.10
26.93
18.70
10.81
4.98
2.27
2.37
3.59
3.74
1.07
-4.93
-13.35
-22.32
-29.59
-33.21
-32.06
-26.06
-16.19
-4.38
6.86
14.87
17.25
12.47
0.34
-17.45
-37.45
-55.08
-66.02
-67.59
-59.62
-44.38
-25.57
-6.77
9.76
23.45
34.97
45.17
54.35
62.04
67.34
69.70
69.26
66.76
62.98
58.25
52.42
45.24
37.03
28.91
22.45
18.84
18.08
18.78
18.76
16.07
9.97
1.24
-8.26
-16.37
-21.49
-23.02
-21.36
-17.55
-12.83
-8.38
-5.23
-4.41
-6.91
-13.49
-24.09
-37.34
-50.59
-60.56
-64.61
-61.86
-53.56
-42.49
-31.59
-22.74
-16.18
-10.88
-5.38
1.37
9.72
19.49
30.36
42.12
54.36
66.01
75.20
79.64
77.48
68.29
53.55
36.36
20.49
9.10
3.58
3.13
5.07
5.85
2.44
-6.51
-20.07
-35.41
-48.81
-57.21
-59.22
-55.60
-48.67
-41.24
-35.50
-32.56
-32.58
-35.09
-39.39
-44.44
-48.82
-50.72
-48.38
-40.72
-27.96
-11.69
5.57
21.20
33.34
41.26
45.29
46.27
45.15
42.74
39.74
36.70
33.90
31.09
27.36
21.66
13.56
3.89
-5.02
-10.10
-8.85
-0.66
12.49
26.44
36.27
38.20
31.13
17.15
0.77
-12.88
-20.03
-19.70
-13.88
-6.46
-1.58
-2.02
-8.57
-20.10
-34.17
-47.65
-57.39
-60.74
-56.31
-44.52
-27.56
-8.63
9.24
24.24
36.17
45.87
54.27
61.41
66.37
67.70
64.40
56.60
45.67
33.57
21.93
11.51
2.18
-6.55
-14.68
-21.32
-24.93
-24.12
-18.60
-9.66
0.14
7.86
11.38
10.09
4.96
-1.99
-8.49
-12.73
-13.82
-11.88
-7.92
-3.56
-0.69
-1.14
-6.15
-16.01
-29.44
-43.69
-55.20
-60.75
-58.80
-49.99
-36.83
-22.32
-8.73
3.22
14.05
24.55
34.75
43.54
49.16
50.16
46.33
38.89
30.02
21.82
15.54
11.25
8.21
5.52
2.76
0.26
-1.13
-0.67
1.79
5.50
9.01
10.69
9.25
4.33
-3.36
-12.12
-19.73
-24.27
-24.83
-21.99
-17.69
-14.63
-15.32
-21.34
-32.82
-48.32
-65.07
-79.58
-88.49
-89.48
-82.02
-67.47
-48.50
-28.10
-8.58
8.96
24.48
38.35
50.65
60.80
67.76
70.46
68.54
62.69
54.52
46.01
38.75
33.34
29.35
25.71
21.42
16.21
10.61
5.71
2.48
1.39
2.18
4.14
6.41
8.27
9.26
9.17
8.03
6.08
3.70
1.26
-1.06
-3.50
-6.75
-11.93
-20.23
-32.26
-47.34
-63.20
-76.32
-82.95
-80.56
-68.86
-49.87
-27.15
-4.27
16.28
33.60
47.91
59.66
68.72
74.26
75.28
71.42
63.60
53.90
44.71
37.71
33.05
29.47
25.06
18.40
9.41
-0.61
-9.56
-15.57
-17.66
-16.00
-11.64
-6.13
-1.13
1.99
2.39
0.05
-4.18
-8.79
-12.11
-12.89
-10.86
-6.86
-2.62
-0.34
-2.01
-8.61
-19.64
-32.98
-45.54
-54.31
-57.52
-55.19
-48.86
-40.52
-31.55
-22.11
-11.39
1.37
15.89
30.43
42.33
49.21
50.18
46.32
40.01
33.59
28.11
22.97
16.71
8.26
-1.99
-12.09
-19.52
-22.49
-20.92
-16.39
-11.26
-7.54
-6.11
-6.66
-8.11
-9.17
-8.90
-6.84
-3.14
1.54
6.11
9.24
9.62
6.18
-1.64
-13.50
-28.01
-42.77
-54.99
-62.36
-63.83
-59.91
-52.18
-42.36
-31.50
-19.61
-6.10
9.34
25.95
41.84
54.51
61.95
63.57
60.48
54.93
49.12
44.25
40.13
35.59
29.48
21.57
12.85
4.98
-0.57
-3.33
-4.04
-4.09
-4.80
-6.82
-10.01
-13.66
-16.87
-18.75
-18.63
-16.22
-11.71
-5.89
-0.10
4.12
5.25
2.21
-5.33
-16.58
-29.64
-41.70
-49.88
-52.16
-48.14
-39.09
-27.33
-15.02
-3.32
7.81
19.10
31.02
43.19
54.39
63.19
68.59
70.49
69.59
66.89
63.15
58.60
52.99
46.14
38.19
29.69
21.33
13.57
6.39
-0.48
-7.19
-13.43
-18.56
-21.99
-23.63
-23.87
-23.21
-21.82
-19.30
-15.12
-9.25
-2.53
3.53
7.32
7.78
4.57
-1.99
-10.98
-21.03
-30.43
-37.53
-41.32
-41.98
-40.77
-39.21
-38.04
-36.62
-33.08
-25.58
-13.51
1.92
18.07
32.09
42.10
47.65
49.38
48.20
44.62
38.85
31.21
22.62
14.70
9.14
7.02
8.17
11.20
13.94
14.30
11.03
4.20
-4.72
-13.21
-18.58
-18.87
-13.75
-4.64
5.72
14.36
18.99
18.52
12.97
3.17
-9.43
-22.77
-34.32
-41.79
-43.87
-40.97
-35.01
-28.43
-22.86
-18.28
-13.33
-6.27
3.67
15.82
28.31
38.90
45.87
48.43
46.82
42.05
35.39
27.90
20.06
11.82
3.11
-5.60
-13.08
-17.71
-18.48
-15.78
-11.57
-8.43
-8.29
-11.50
-16.74
-21.94
-25.45
-26.70
-26.33
-25.60
-25.92
-28.36
-33.46
-40.80
-48.87
-55.25
-57.43
-53.94
-45.33
-34.03
-23.34
-15.69
-11.61
-9.59
-7.20
-2.56
4.70
13.29
21.16
26.64
29.32
30.05
30.34
31.33
33.13
34.77
34.82
32.28
27.26
20.87
14.58
9.37
5.17
1.01
-4.10
-10.38
-16.79
-21.43
-22.48
-19.19
-12.34
-3.95
3.64
8.77
10.89
10.29
7.42
2.33
-5.15
-14.63
-24.47
-31.94
-34.31
-30.40
-21.58
-11.19
-2.98
0.99
1.25
0.44
1.54
6.03
12.93
19.40
22.35
20.16
13.54
5.08
-2.07
-5.72
-5.60
-3.14
-0.51
0.70
0.18
-1.25
-2.50
-3.24
-4.21
-6.74
-11.71
-18.59
-25.38
-29.43
-28.72
-23.00
-13.93
-4.32
3.18
7.10
7.36
4.68
-0.26
-7.12
-15.62
-24.84
-33.01
-38.04
-38.65
-35.31
-30.16
-25.86
-24.06
-24.30
-24.24
-21.11
-13.43
-2.12
9.76
18.46
21.40
18.35
11.43
3.94
-1.19
-2.55
-0.35
4.31
10.49
17.96
26.97
37.37
47.84
55.85
58.60
54.44
43.89
29.73
16.02
6.46
3.11
5.78
12.53
20.73
28.05
33.02
34.86
33.15
27.61
18.43
6.76
-5.12
-14.36
-18.64
-17.30
-11.74
-4.74
0.81
3.37
3.28
2.42
3.01
6.40
12.35
19.21
24.81
27.49
26.70
22.97
17.38
10.96
4.32
-2.15
-7.88
-11.86
-12.95
-10.53
-5.28
0.62
4.15
2.68
-4.83
-17.25
-31.64
-44.38
-52.48
-54.53
-50.98
-43.74
-35.35
-28.25
-24.23
-24.33
-28.70
-36.52
-45.89
-53.99
-57.68
-54.50
-43.53
-25.86
-4.17
18.18
38.38
54.76
66.94
75.19
79.80
80.76
77.87
71.19
61.43
49.98
38.47
28.13
19.45
12.03
5.07
-1.94
-8.68
-13.97
-16.42
-15.45
-11.95
-8.27
-7.21
-10.72
-18.79
-29.20
-38.39
-42.89
-40.75
-32.27
-19.70
-6.33
4.68
11.09
11.80
6.74
-3.25
-16.47
-30.45
-42.46
-50.23
-52.70
-50.26
-44.31
-36.42
-27.40
-17.15
-5.11
8.78
23.49
37.04
47.21
52.61
53.28
50.63
46.51
42.32
38.27
33.51
26.84
17.69
6.80
-3.89
-11.99
-15.81
-15.25
-11.70
-7.44
-4.52
-3.97
-5.52
-8.01
-10.00
-10.36
-8.62
-4.98
-0.18
4.69
8.32
9.33
6.55
-0.61
-11.65
-24.84
-37.51
-46.85
-50.87
-48.95
-41.88
-31.23
-18.66
-5.32
8.20
21.61
34.51
46.16
55.62
61.90
64.45
63.31
59.26
53.52
47.44
42.05
37.67
33.97
30.27
26.17
21.86
18.05
15.42
14.04
13.09
11.19
7.15
0.53
-7.92
-16.59
-23.66
-27.81
-28.62
-26.54
-22.52
-17.54
-12.57
-8.67
-7.23
-9.67
-16.86
-28.38
-42.27
-55.47
-64.92
-68.65
-66.37
-59.19
-48.77
-36.49
-23.03
-8.69
6.15
20.61
33.39
43.34
49.98
53.69
55.35
55.73
55.03
52.78
48.17
40.64
30.32
18.17
5.65
-5.69
-14.67
-20.75
-24.01
-25.01
-24.47
-22.97
-20.78
-17.80
-13.85
-8.91
-3.42
1.79
5.75
7.65
6.93
3.18
-3.83
-14.00
-26.54
-39.84
-51.75
-60.34
-64.58
-64.57
-61.11
-54.88
-45.92
-33.63
-17.59
1.60
21.95
40.51
54.51
62.53
64.97
63.61
60.56
57.12
53.47
48.92
42.82
35.17
26.76
18.79
12.08
6.70
2.12
-2.27
-6.61
-10.37
-12.56
-12.35
-9.49
-4.52
1.43
7.04
11.24
13.51
13.94
12.90
10.54
6.44
-0.11
-9.50
-21.09
-33.12
-43.29
-49.90
-52.55
-52.05
-49.52
-45.39
-38.87
-28.49
-13.28
6.08
27.02
45.68
58.51
63.70
61.73
54.91
46.12
37.65
30.44
24.23
18.16
11.64
4.85
-1.31
-5.76
-7.85
-7.80
-6.53
-5.29
-5.17
-6.65
-9.55
-13.12
-16.32
-18.25
-18.46
-17.02
-14.41
-11.30
-8.49
-6.97
-7.85
-11.97
-19.42
-29.04
-38.56
-45.39
-47.72
-45.38
-39.69
-32.60
-25.41
-18.10
-9.59
1.19
14.13
27.61
39.12
46.58
49.46
49.05
47.60
46.97
47.66
48.57
47.84
43.95
36.72
27.33
17.72
9.55
3.42
-1.25
-5.70
-10.91
-16.96
-22.75
-26.46
-26.30
-21.40
-12.27
-0.72
10.84
20.16
25.82
27.28
24.53
17.87
7.88
-4.26
-16.52
-26.44
-31.98
-32.55
-29.34
-24.80
-21.26
-19.60
-18.77
-16.56
-11.01
-1.74
9.64
20.42
28.22
32.18
33.15
32.95
33.13
34.10
35.05
34.68
32.08
27.27
21.07
14.38
7.57
0.30
-7.98
-17.42
-27.20
-35.67
-40.92
-41.61
-37.59
-29.94
-20.52
-11.24
-3.42
2.30
5.58
6.01
2.95
-3.95
-14.04
-25.37
-35.18
-41.00
-41.89
-38.85
-34.15
-30.01
-27.28
-25.10
-21.57
-15.09
-5.47
5.77
16.14
23.42
26.77
27.00
25.94
25.27
25.53
25.81
24.36
19.78
12.02
2.53
-6.32
-12.46
-15.01
-14.51
-12.50
-10.60
-9.92
-10.76
-12.76
-15.12
-16.96
-17.47
-16.06
-12.53
-7.18
-0.92
4.65
7.56
5.97
-0.82
-11.88
-24.57
-35.44
-41.67
-42.24
-38.17
-31.78
-25.24
-19.46
-13.87
-7.20
1.32
11.16
20.62
27.76
31.57
32.62
32.75
33.99
37.37
42.25
46.50
47.61
43.93
35.50
24.02
11.97
1.47
-6.47
-12.06
-16.24
-19.90
-23.35
-26.24
-27.87
-27.70
-25.70
-22.41
-18.64
-15.05
-11.91
-9.17
-7.02
-6.14
-7.64
-12.30
-19.73
-28.14
-34.90
-37.90
-36.57
-32.12
-26.61
-21.63
-17.40
-12.84
-6.60
1.77
11.22
19.77
25.50
27.68
27.17
25.98
26.30
29.35
34.76
40.73
44.77
44.85
40.11
31.12
19.47
7.07
-4.44
-13.91
-20.67
-24.44
-25.36
-23.97
-21.22
-18.28
-16.11
-15.21
-15.50
-16.46
-17.38
-17.66
-17.16
-16.48
-16.80
-19.40
-24.89
-32.55
-40.35
-45.72
-46.76
-43.07
-35.84
-27.02
-18.16
-9.70
-1.05
8.55
19.06
29.23
36.98
40.44
39.05
34.01
27.84
23.26
21.89
23.54
26.39
28.06
26.76
22.07
14.97
7.15
0.17
-5.07
-8.42
-10.19
-10.83
-10.75
-10.27
-9.66
-9.22
-9.20
-9.75
-10.86
-12.25
-13.42
-13.88
-13.57
-13.28
-14.50
-18.73
-26.39
-36.08
-44.81
-49.19
-47.06
-38.64
-26.40
-13.79
-3.46
3.87
9.25
14.42
20.37
26.60
31.50
33.57
32.60
29.99
27.98
28.45
31.89
37.15
42.11
44.68
43.66
39.06
31.86
23.31
14.53
6.18
-1.35
-7.77
-12.65
-15.65
-16.71
-16.38
-15.80
-16.34
-19.01
-23.84
-29.78
-35.15
-38.56
-39.73
-39.59
-39.57
-40.63
-42.55
-44.09
-43.75
-40.73
-35.40
-28.92
-22.44
-16.35
-10.03
-2.43
7.08
18.00
28.68
37.03
41.62
42.40
40.69
38.47
37.33
37.71
38.68
38.59
36.00
30.47
22.82
14.72
7.88
3.33
1.12
0.54
0.59
0.58
0.31
0.01
-0.04
0.11
0.03
-0.88
-3.02
-6.24
-10.03
-13.91
-17.91
-22.56
-28.41
-35.34
-42.16
-46.96
-48.10
-45.29
-39.83
-34.02
-29.81
-27.60
-26.06
-22.83
-16.13
-5.69
7.02
19.73
30.59
39.04
45.68
51.47
56.93
61.77
65.18
66.42
65.32
62.21
57.63
51.95
45.33
37.93
30.22
23.03
17.28
13.47
11.46
10.43
9.30
7.16
3.55
-1.45
-7.38
-13.64
-19.85
-25.91
-32.05
-38.43
-44.71
-49.89
-52.53
-51.45
-46.42
-38.46
-29.37
-20.86
-13.62
-7.03
0.31
9.66
21.26
34.08
46.23
55.76
61.38
62.87
60.91
56.72
51.42
45.74
39.83
33.62
27.04
20.39
14.24
9.25
5.82
3.86
2.89
2.22
1.32
-0.07
-1.93
-4.02
-6.00
-7.59
-8.69
-9.57
-10.83
-13.12
-16.82
-21.71
-27.09
-32.23
-36.72
-40.61
-44.04
-46.92
-48.65
-48.46
-45.85
-40.98
-34.60
-27.51
-20.04
-11.90
-2.45
8.64
20.84
32.75
42.53
48.59
50.28
48.20
44.04
39.83
37.17
36.57
37.33
37.98
37.01
33.67
28.17
21.51
14.95
9.47
5.59
3.42
2.95
4.10
6.57
9.61
12.04
12.43
9.63
3.27
-5.98
-16.58
-26.56
-34.42
-39.72
-43.04
-45.42
-47.55
-49.10
-48.92
-45.76
-39.19
-30.02
-20.00
-10.81
-3.25
3.13
9.67
17.65
27.53
38.68
49.49
58.17
63.35
64.58
62.27
57.40
51.03
44.00
36.93
30.25
24.33
19.46
15.78
13.19
11.38
9.94
8.67
7.60
6.92
6.72
6.73
6.35
4.79
1.35
-4.31
-12.10
-21.48
-31.45
-40.69
-47.94
-52.52
-54.64
-55.34
-56.02
-57.62
-60.14
-62.64
-63.77
-62.54
-58.77
-53.01
-46.03
-38.23
-29.51
-19.40
-7.65
5.25
18.06
29.11
36.94
40.94
41.77
41.13
41.04
42.85
46.48
50.36
52.23
50.35
44.42
35.82
26.91
19.80
15.57
14.05
14.31
15.38
16.58
17.42
17.28
15.24
10.37
2.30
-8.36
-20.02
-30.57
-38.17
-41.90
-42.19
-40.66
-39.40
-40.05
-42.98
-47.05
-50.06
-49.81
-45.10
-36.38
-25.37
-14.25
-4.62
3.03
9.23
15.04
21.39
28.63
36.53
44.39
51.32
56.62
60.04
61.84
62.60
62.60
61.57
58.61
52.80
43.95
33.00
21.79
12.26
5.55
1.63
-0.46
-1.92
-3.61
-5.84
-8.59
-11.80
-15.49
-19.75
-24.48
-29.39
-34.07
-38.11
-41.11
-42.82
-43.36
-43.28
-43.49
-44.82
-47.43
-50.43
-52.03
-50.40
-44.71
-35.70
-25.37
-15.99
-8.87
-3.74
1.04
7.42
16.54
28.02
40.13
50.62
57.72
60.97
61.27
60.29
59.55
59.51
59.46
57.93
53.61
46.18
36.50
26.12
16.59
8.72
2.39
-2.98
-7.90
-12.39
-15.92
-17.80
-17.62
-15.57
-12.45
-9.35
-7.23
-6.54
-7.10
-8.35
-9.86
-11.75
-14.69
-19.38
-25.79
-32.79
-38.45
-40.93
-39.38
-34.28
-27.07
-19.17
-11.23
-3.08
5.85
15.70
25.82
34.85
41.30
44.25
43.72
40.71
36.84
33.67
32.13
32.05
32.24
31.05
27.29
20.84
12.73
4.63
-2.07
-6.84
-10.05
-12.47
-14.67
-16.65
-18.04
-18.41
-17.60
-15.78
-13.32
-10.55
-7.78
-5.26
-3.22
-1.86
-1.36
-2.05
-4.47
-9.15
-16.21
-24.90
-33.46
-39.60
-41.39
-38.11
-30.55
-20.57
-10.15
-0.62
7.69
15.15
22.24
29.14
35.60
41.17
45.37
47.92
48.69
47.59
44.56
39.40
32.00
22.53
11.71
0.81
-8.59
-15.29
-18.92
-20.19
-20.50
-21.19
-22.83
-24.96
-26.47
-26.30
-24.11
-20.43
-16.38
-13.06
-11.15
-10.65
-11.08
-11.73
-12.04
-11.98
-12.21
-13.93
-18.18
-25.13
-33.47
-40.60
-43.49
-40.11
-30.36
-16.19
-0.69
13.28
24.20
32.18
38.42
44.25
50.31
56.23
60.90
62.89
61.20
55.72
47.44
38.18
29.83
23.57
19.34
16.06
12.41
7.69
2.16
-3.30
-7.98
-11.75
-14.97
-17.86
-19.92
-20.15
-17.75
-13.07
-7.87
-4.64
-5.40
-10.57
-18.81
-27.65
-34.95
-39.79
-42.92
-45.95
-50.24
-55.81
-61.10
-63.72
-61.72
-54.76
-44.42
-33.40
-24.15
-17.55
-12.65
-7.28
0.63
11.75
24.95
37.69
46.94
50.43
47.47
39.23
28.20
17.25
8.54
2.85
-0.32
-2.10
-3.26
-3.74
-2.96
-0.61
2.66
5.32
5.87
3.81
0.11
-3.31
-4.82
-4.08
-2.21
-1.06
-2.14
-5.87
-11.72
-18.84
-26.75
-35.50
-45.10
-54.79
-62.65
-66.10
-63.11
-53.25
-38.17
-20.87
-4.38
9.59
21.13
31.61
42.48
53.92
64.41
71.23
71.85
65.41
53.45
39.46
27.35
19.80
17.22
17.94
19.40
19.58
17.80
14.62
10.91
7.11
2.99
-1.77
-6.90
-11.32
-13.63
-13.01
-9.85
-5.69
-2.49
-1.68
-3.67
-8.01
-13.94
-21.03
-29.33
-38.86
-48.97
-57.91
-63.26
-62.97
-56.41
-44.84
-30.91
-17.36
-5.83
3.78
12.74
22.49
33.43
44.37
52.95
56.64
54.06
45.77
34.22
22.70
13.97
9.10
7.33
6.67
5.33
2.64
-0.76
-3.71
-5.59
-6.80
-8.42
-11.22
-14.95
-18.39
-20.21
-19.84
-17.89
-15.69
-14.49
-14.79
-16.38
-18.87
-22.32
-27.50
-35.31
-45.91
-57.84
-68.04
-72.84
-69.56
-57.87
-40.22
-20.90
-4.21
7.25
13.48
16.66
19.71
24.77
32.20
40.54
47.43
50.82
49.76
44.59
36.41
26.38
15.36
3.95
-7.06
-16.33
-22.20
-23.30
-19.49
-12.26
-4.49
0.73
1.33
-2.85
-10.15
-17.89
-23.55
-25.51
-23.45
-18.09
-10.73
-2.86
3.92
7.91
7.24
0.39
-12.98
-31.08
-49.91
-64.22
-69.41
-63.52
-48.08
-27.35
-6.36
11.30
24.56
34.61
43.40
52.14
60.61
67.33
70.54
69.13
63.10
53.47
41.83
29.86
18.83
9.44
1.81
-4.39
-9.54
-13.86
-17.31
-19.79
-21.44
-22.76
-24.49
-27.23
-31.02
-35.24
-38.83
-40.72
-40.31
-37.64
-33.21
-27.75
-22.08
-17.32
-14.99
-16.99
-24.77
-38.30
-55.23
-71.03
-80.31
-78.93
-65.76
-43.24
-16.35
9.53
30.65
45.81
56.01
63.14
68.49
72.24
73.61
71.77
66.65
59.21
51.00
43.33
36.60
30.20
23.20
15.13
6.56
-0.98
-5.83
-7.17
-5.64
-3.27
-2.56
-5.39
-12.22
-21.97
-32.51
-41.36
-46.43
-46.40
-40.99
-31.09
-18.67
-6.57
2.12
4.84
0.22
-11.29
-27.22
-43.53
-55.55
-59.37
-53.15
-37.85
-16.83
5.31
24.52
38.52
47.17
51.79
54.15
55.40
55.84
55.17
52.94
49.01
43.63
37.25
30.22
22.75
14.83
6.54
-1.74
-9.30
-15.16
-18.52
-19.24
-18.03
-16.36
-15.84
-17.49
-21.26
-26.05
-30.28
-32.51
-31.91
-28.35
-22.23
-14.37
-5.92
1.58
6.38
6.81
1.83
-8.52
-22.79
-38.20
-51.16
-58.21
-57.10
-47.77
-32.47
-15.09
0.20
10.55
15.28
15.81
14.75
14.50
16.31
19.99
24.32
27.80
29.39
28.76
26.28
22.62
18.53
14.60
11.28
9.04
8.30
9.35
12.03
15.55
18.56
19.54
17.39
11.92
3.89
-5.32
-14.16
-21.32
-25.87
-27.33
-25.70
-21.60
-16.33
-11.77
-9.90
-12.22
-19.28
-30.23
-42.88
-54.10
-60.61
-60.00
-51.63
-36.90
-18.78
-0.68
14.77
26.48
34.77
40.83
45.66
49.62
52.34
53.14
51.60
47.87
42.77
37.47
33.02
29.96
28.13
26.75
24.88
21.89
17.75
13.00
8.45
4.66
1.72
-0.72
-3.13
-5.80
-8.69
-11.48
-13.84
-15.55
-16.65
-17.42
-18.16
-19.14
-20.47
-22.15
-24.22
-27.05
-31.12
-36.71
-43.31
-49.37
-52.76
-51.61
-45.26
-34.62
-21.70
-8.57
3.46
14.18
23.95
33.02
41.04
47.12
50.41
50.64
48.35
44.80
41.51
39.80
40.24
42.44
45.13
46.51
45.13
40.46
33.19
24.86
17.04
10.63
5.57
1.17
-3.27
-7.93
-12.44
-16.18
-18.71
-20.02
-20.49
-20.51
-20.29
-19.72
-18.63
-17.12
-15.87
-16.20
-19.33
-25.56
-33.62
-40.82
-44.12
-41.56
-33.29
-21.45
-9.03
1.60
9.69
15.88
21.34
26.77
31.98
36.19
38.75
39.60
39.23
38.34
37.38
36.42
35.24
33.61
31.34
28.42
24.88
20.73
16.03
10.85
5.32
-0.43
-6.30
-12.28
-18.42
-24.71
-31.02
-36.90
-41.63
-44.42
-44.70
-42.48
-38.33
-33.29
-28.47
-24.78
-22.89
-23.35
-26.60
-32.61
-40.53
-48.50
-53.99
-54.83
-50.17
-40.98
-29.67
-18.93
-10.51
-4.47
0.58
6.57
14.90
25.76
38.16
50.45
61.08
69.08
74.14
76.40
76.18
73.78
69.44
63.34
55.79
47.21
38.14
29.06
20.30
11.92
3.81
-4.16
-11.96
-19.33
-25.77
-30.66
-33.41
-33.71
-31.63
-27.63
-22.56
-17.49
-13.66
-12.36
-14.61
-20.61
-29.25
-38.12
-44.14
-44.79
-39.27
-29.02
-17.05
-6.56
0.55
4.46
7.02
10.67
17.09
26.46
37.53
48.32
57.01
62.46
64.46
63.41
60.06
55.22
49.56
43.51
37.23
30.60
23.41
15.53
7.11
-1.35
-9.15
-15.65
-20.65
-24.44
-27.77
-31.27
-35.07
-38.57
-40.72
-40.66
-38.24
-34.15
-29.56
-25.54
-22.73
-21.37
-21.44
-22.89
-25.47
-28.63
-31.38
-32.68
-31.95
-29.43
-26.03
-22.84
-20.38
-18.25
-15.43
-10.82
-3.81
5.59
16.87
29.23
41.63
52.74
61.05
65.32
65.26
61.81
56.88
52.46
49.82
48.93
48.71
47.61
44.27
37.91
28.34
15.91
1.56
-13.02
-25.50
-33.41
-35.00
-30.09
-20.34
-8.82
1.13
7.09
8.28
5.68
1.41
-2.15
-3.25
-1.43
2.22
5.47
5.73
1.24
-8.10
-20.59
-33.48
-44.27
-51.65
-55.67
-57.12
-56.44
-53.19
-46.31
-35.05
-19.86
-2.55
14.28
28.28
38.17
43.93
46.38
46.56
45.34
43.18
40.14
36.00
30.55
23.77
16.08
8.28
1.16
-4.79
-9.71
-14.14
-18.51
-22.65
-25.62
-26.09
-23.05
-16.37
-7.05
3.10
12.02
17.99
19.94
17.54
11.18
1.81
-9.16
-20.20
-29.93
-37.39
-42.30
-45.05
-46.63
-48.27
-51.14
-55.89
-62.22
-68.75
-73.25
-73.33
-67.37
-55.28
-38.68
-20.37
-3.26
10.64
20.82
28.04
33.57
38.37
42.55
45.52
46.40
44.57
39.99
33.13
24.82
15.93
7.36
0.03
-5.17
-7.46
-6.46
-2.33
4.16
11.81
19.23
25.18
28.76
29.56
27.67
23.65
18.42
12.99
8.17
4.28
0.96
-2.53
-6.95
-12.71
-19.65
-27.24
-34.71
-41.21
-45.74
-47.14
-44.35
-36.94
-25.57
-12.03
1.23
12.12
19.76
24.71
28.49
32.62
37.86
43.93
49.79
54.18
56.14
55.16
51.23
44.77
36.64
28.04
20.38
14.97
12.48
12.68
14.35
15.80
15.50
12.72
7.80
1.99
-3.21
-6.59
-7.65
-6.70
-4.58
-2.35
-0.99
-1.29
-3.81
-8.71
-15.68
-23.88
-32.14
-39.20
-43.99
-45.79
-44.34
-39.98
-33.63
-26.80
-21.13
-17.82
-16.98
-17.44
-17.20
-14.21
-7.44
2.79
14.95
26.99
37.01
43.67
46.26
44.70
39.58
32.31
24.87
19.27
16.81
17.54
20.29
23.26
24.80
23.96
20.51
14.71
6.99
-2.02
-11.39
-19.80
-25.84
-28.56
-27.99
-25.33
-22.54
-21.68
-24.05
-29.74
-37.57
-45.64
-51.99
-55.36
-55.30
-51.92
-45.46
-36.10
-24.21
-10.82
2.06
11.97
16.94
16.61
12.64
8.12
6.20
8.59
14.81
22.53
28.77
31.37
29.99
26.22
22.82
22.48
26.67
35.03
45.49
55.11
61.15
61.98
57.37
48.38
36.84
24.73
13.88
5.64
0.75
-0.80
0.24
2.59
4.64
4.95
2.48
-2.98
-10.79
-19.49
-27.20
-32.27
-33.75
-31.61
-26.44
-18.96
-9.64
1.08
12.49
23.19
31.34
35.46
35.27
32.10
28.31
26.20
26.87
29.77
33.15
34.97
33.85
29.56
22.98
15.61
9.11
4.76
3.21
4.39
7.52
11.28
14.08
14.48
11.64
5.78
-1.67
-8.35
-11.75
-10.25
-3.94
5.26
14.19
19.65
19.47
13.00
1.07
-14.57
-31.70
-47.93
-60.84
-68.30
-69.01
-62.98
-51.74
-37.94
-24.46
-13.54
-6.17
-2.20
-0.79
-1.00
-2.10
-3.49
-4.62
-4.86
-3.72
-1.01
2.85
7.00
10.51
12.87
14.39
16.11
19.44
25.38
33.98
44.06
53.58
60.21
62.02
58.03
48.30
33.99
17.09
0.17
-14.11
-23.57
-27.16
-25.39
-20.23
-14.41
-10.47
-9.89
-12.69
-17.71
-23.12
-27.11
-28.33
-26.20
-20.94
-13.35
-4.47
4.74
13.51
21.23
27.14
30.39
30.15
26.24
19.53
11.88
5.62
2.54
3.27
7.18
12.92
19.24
25.50
31.69
38.01
44.55
51.08
57.13
62.21
65.80
67.35
66.17
61.50
52.85
40.39
25.22
9.30
-5.03
-15.68
-21.53
-22.69
-20.50
-17.06
-14.53
-14.49
-17.63
-23.65
-31.53
-39.89
-47.28
-52.32
-53.95
-51.63
-45.45
-36.16
-24.98
-13.28
-2.30
6.98
13.76
17.40
17.46
14.00
7.72
0.01
-7.35
-12.67
-14.75
-13.08
-7.83
0.32
10.33
20.79
30.23
37.38
41.56
42.93
42.34
40.81
39.02
36.85
33.48
27.83
19.14
7.46
-6.22
-20.16
-32.29
-40.86
-44.91
-44.73
-41.69
-37.87
-35.26
-35.10
-37.48
-41.49
-45.66
-48.52
-49.11
-47.26
-43.59
-39.19
-35.20
-32.20
-29.95
-27.59
-24.20
-19.51
-14.23
-9.78
-7.37
-7.20
-8.16
-8.17
-5.23
1.77
12.47
25.39
38.47
49.81
58.23
63.43
65.88
66.42
65.87
64.61
62.52
59.00
53.34
44.97
33.69
19.74
3.88
-12.64
-28.25
-41.38
-50.89
-56.41
-58.35
-57.57
-54.90
-50.81
-45.36
-38.62
-30.88
-22.81
-15.18
-8.62
-3.47
0.20
2.47
3.56
3.95
4.28
5.13
6.56
7.93
8.09
6.03
1.69
-3.71
-7.95
-8.62
-4.08
5.94
20.26
36.76
52.96
66.60
76.14
80.99
81.49
78.60
73.38
66.54
58.19
48.02
35.68
21.15
4.86
-12.37
-29.50
-45.40
-58.74
-68.08
-72.17
-70.41
-63.24
-52.30
-40.02
-28.85
-20.57
-15.78
-13.92
-13.70
-13.64
-12.56
-9.89
-5.56
0.21
6.92
13.76
19.43
22.23
20.48
13.37
1.69
-11.93
-23.71
-30.03
-28.76
-19.97
-5.74
10.74
26.26
38.35
45.61
47.71
45.29
39.81
33.17
27.31
23.55
22.15
22.20
21.95
19.40
12.87
1.62
-13.89
-31.79
-49.10
-62.29
-68.44
-66.32
-56.96
-43.52
-30.12
-20.32
-15.92
-16.58
-20.27
-24.34
-26.52
-25.63
-21.71
-15.77
-9.20
-3.42
0.47
1.72
-0.10
-5.09
-12.81
-22.21
-31.47
-38.36
-40.82
-37.67
-28.90
-15.67
0.19
16.71
32.09
44.81
53.55
57.44
56.31
51.00
43.19
34.81
27.34
21.26
16.08
10.72
4.01
-4.89
-16.21
-29.39
-42.90
-54.33
-60.95
-60.65
-52.86
-39.09
-22.59
-7.20
3.94
9.38
9.51
5.95
0.72
-4.47
-8.53
-10.98
-11.88
-11.81
-11.78
-13.00
-16.45
-22.28
-29.46
-35.91
-39.06
-36.85
-28.54
-15.17
0.87
16.63
29.70
38.99
44.75
47.94
49.49
49.69
48.28
45.01
40.32
35.45
31.90
30.38
30.08
28.78
23.79
13.33
-2.47
-21.38
-39.93
-54.61
-62.97
-64.15
-58.72
-48.33
-35.15
-21.47
-9.42
-0.59
4.24
5.27
3.56
0.67
-1.95
-3.42
-3.84
-4.26
-6.22
-10.90
-18.31
-26.97
-34.32
-37.75
-35.73
-28.42
-17.54
-5.43
5.89
15.40
22.95
28.87
33.53
37.06
39.52
40.87
41.04
39.86
37.09
32.65
26.69
19.64
12.01
4.30
-3.06
-9.53
-14.50
-17.53
-18.57
-18.20
-17.28
-16.51
-15.82
-14.43
-11.32
-6.04
0.74
7.49
12.49
14.72
14.25
12.07
9.45
7.35
5.97
4.71
2.42
-2.02
-9.03
-17.81
-26.37
-32.07
-32.76
-27.85
-18.68
-7.98
1.30
7.39
10.29
11.51
13.00
15.98
20.32
24.64
27.13
26.55
22.88
17.36
11.81
7.55
4.76
2.39
-1.04
-6.51
-13.90
-22.17
-30.01
-36.52
-41.38
-44.54
-45.65
-43.98
-38.82
-30.19
-19.31
-8.26
0.88
7.03
10.45
12.45
14.44
17.02
19.66
20.91
19.17
13.75
5.51
-2.96
-8.24
-7.35
0.81
14.76
30.82
44.52
52.34
53.00
47.69
39.25
30.79
24.51
21.08
19.89
19.66
19.12
17.55
14.86
11.36
7.41
3.15
-1.47
-6.53
-11.91
-17.24
-22.05
-25.99
-28.86
-30.56
-30.81
-29.22
-25.49
-19.74
-12.70
-5.55
0.58
5.02
7.76
9.23
9.86
9.77
8.82
6.88
3.99
0.39
-3.59
-7.44
-10.52
-12.05
-11.39
-8.52
-4.29
-0.28
1.93
1.54
-0.90
-3.69
-4.87
-3.06
1.90
8.96
16.44
22.68
26.50
27.38
25.47
21.46
16.33
11.09
6.45
2.69
-0.36
-3.25
-6.63
-11.07
-16.80
-23.44
-29.94
-34.71
-36.20
-33.65
-27.80
-20.82
-15.53
-14.15
-17.27
-23.68
-31.19
-37.74
-42.41
-45.53
-48.10
-50.89
-53.86
-55.89
-55.26
-50.42
-40.79
-27.14
-11.47
3.65
15.98
24.37
29.07
31.34
32.78
34.63
37.36
40.69
43.87
45.99
46.41
44.99
42.14
38.74
35.84
34.12
33.62
33.56
32.80
30.24
25.39
18.48
10.35
2.09
-5.39
-11.51
-16.21
-19.86
-23.14
-26.76
-31.24
-36.69
-42.83
-49.03
-54.45
-58.17
-59.36
-57.54
-52.90
-46.44
-39.77
-34.38
-30.99
-29.07
-27.18
-23.74
-18.00
-10.40
-2.36
4.59
9.62
13.00
15.81
19.34
24.36
30.74
37.68
43.99
48.71
51.44
52.42
52.25
51.49
50.36
48.66
45.94
41.79
36.03
28.71
20.10
10.65
1.02
-7.78
-14.65
-18.69
-19.75
-18.67
-17.09
-16.79
-18.91
-23.43
-29.27
-34.83
-38.62
-39.83
-38.39
-34.86
-30.28
-25.80
-22.46
-20.89
-21.14
-22.61
-24.27
-25.10
-24.38
-21.92
-17.94
-12.76
-6.66
0.22
7.78
15.72
23.53
30.56
36.18
40.05
42.34
43.71
45.10
47.35
50.68
54.32
56.69
55.81
50.18
39.38
24.41
7.37
-9.12
-22.67
-31.61
-35.34
-34.38
-30.27
-25.17
-21.15
-19.48
-20.19
-22.15
-23.67
-23.34
-20.65
-16.08
-10.77
-6.06
-2.97
-1.93
-2.79
-4.85
-7.11
-8.69
-9.11
-8.45
-7.21
-5.89
-4.54
-2.64
0.74
6.33
14.18
23.43
32.56
39.96
44.66
46.60
46.58
45.68
44.63
43.42
41.26
37.03
29.90
19.91
8.03
-4.10
-14.69
-22.34
-26.40
-27.13
-25.65
-23.67
-22.93
-24.62
-28.85
-34.54
-39.80
-42.77
-42.37
-38.64
-32.65
-26.01
-20.35
-17.02
-16.77
-19.61
-24.69
-30.40
-34.80
-36.34
-34.33
-29.19
-22.03
-14.03
-5.93
2.06
10.04
17.96
25.42
31.85
36.69
39.69
40.94
40.71
39.39
37.30
34.70
31.77
28.42
24.41
19.33
13.02
5.71
-1.85
-8.68
-13.95
-17.43
-19.59
-21.35
-23.55
-26.50
-29.81
-32.63
-34.26
-34.56
-34.08
-33.58
-33.54
-33.64
-33.01
-30.91
-27.38
-23.46
-20.83
-20.79
-23.65
-28.50
-33.75
-37.95
-40.31
-40.63
-38.86
-34.62
-27.17
-15.87
-0.87
16.42
33.60
48.03
57.83
62.63
63.50
62.34
60.90
59.97
59.14
57.13
52.45
44.15
32.06
16.94
0.17
-16.48
-31.19
-42.39
-49.06
-51.06
-49.14
-44.62
-38.94
-33.18
-27.84
-23.05
-18.89
-15.65
-13.76
-13.59
-15.29
-18.68
-23.28
-28.42
-33.31
-37.18
-39.55
-40.34
-39.97
-39.00
-37.63
-35.26
-30.66
-22.49
-10.19
5.50
22.56
38.40
50.78
58.63
62.27
63.08
62.79
62.74
63.38
64.03
63.27
59.39
51.11
37.94
20.50
0.36
-20.13
-38.24
-51.36
-57.57
-56.29
-48.66
-37.36
-25.83
-17.20
-13.30
-14.25
-18.76
-24.75
-30.17
-33.50
-34.13
-32.53
-30.23
-29.23
-31.09
-36.13
-43.08
-49.65
-53.58
-53.69
-50.13
-43.84
-35.69
-25.84
-13.97
0.10
15.82
31.75
46.01
56.98
63.74
66.12
64.65
60.32
54.39
48.12
42.37
37.24
32.04
25.64
17.01
5.79
-7.40
-21.10
-33.37
-42.30
-46.43
-45.19
-39.15
-29.96
-19.94
-11.41
-5.92
-4.01
-5.15
-8.28
-12.25
-16.18
-19.63
-22.72
-26.10
-30.63
-37.02
-45.33
-54.74
-63.62
-69.88
-71.61
-67.59
-57.47
-41.82
-21.95
0.32
22.92
43.89
61.66
75.27
84.43
89.40
90.72
89.06
85.02
79.10
71.78
63.51
54.69
45.63
36.50
27.31
18.08
9.07
0.92
-5.34
-8.62
-8.27
-4.53
1.34
7.36
11.52
12.45
9.74
3.90
-3.98
-12.58
-20.56
-26.77
-30.67
-32.66
-34.11
-36.94
-42.51
-50.76
-59.75
-66.21
-66.84
-59.73
-45.20
-25.50
-3.83
16.95
35.08
50.06
62.16
71.71
78.77
83.10
84.42
82.88
79.14
74.07
68.17
61.10
51.82
39.25
23.22
5.05
-12.68
-27.08
-36.11
-39.27
-37.58
-32.77
-26.57
-20.16
-14.31
-9.65
-6.75
-5.97
-7.15
-9.40
-11.52
-12.61
-12.83
-13.62
-17.28
-25.96
-40.20
-58.00
-74.99
-85.79
-85.99
-74.04
-51.74
-23.50
5.59
31.58
52.59
68.61
80.48
88.81
93.49
93.93
89.73
81.30
70.07
58.09
47.23
38.50
31.63
25.46
18.61
10.43
1.33
-7.33
-14.05
-17.83
-18.56
-16.74
-13.08
-8.18
-2.64
2.69
6.64
7.89
5.59
-0.25
-8.65
-18.04
-26.88
-34.09
-39.23
-42.40
-44.02
-44.67
-44.89
-44.98
-44.81
-43.68
-40.52
-34.35
-24.76
-12.24
1.99
16.45
29.97
42.01
52.51
61.57
69.03
74.40
77.05
76.66
73.39
67.86
60.93
53.33
45.62
38.20
31.47
25.78
21.22
17.41
13.58
9.00
3.57
-1.79
-5.51
-6.24
-3.86
0.09
2.94
2.11
-3.57
-13.41
-25.33
-37.04
-47.08
-55.07
-61.27
-65.85
-68.43
-68.40
-65.42
-59.90
-52.94
-45.79
-39.24
-33.27
-27.26
-20.45
-12.54
-3.82
5.00
13.23
20.56
27.19
33.55
39.85
45.74
50.31
52.53
51.84
48.63
44.11
39.83
36.89
35.60
35.42
35.31
34.17
31.25
26.29
19.57
11.85
4.32
-1.79
-5.67
-7.46
-8.41
-10.39
-15.03
-22.82
-32.79
-42.92
-51.01
-55.56
-56.22
-53.69
-49.31
-44.60
-40.79
-38.44
-37.27
-36.21
-33.71
-28.48
-20.08
-9.20
2.68
13.94
23.53
31.23
37.43
42.64
47.07
50.59
52.95
54.12
54.51
54.92
56.06
58.20
60.87
62.95
63.07
60.11
53.64
44.08
32.55
20.53
9.46
0.48
-5.68
-8.83
-9.33
-8.14
-6.69
-6.43
-8.38
-12.66
-18.46
-24.34
-28.77
-30.61
-29.46
-25.71
-20.58
-15.80
-13.03
-13.25
-16.12
-19.96
-22.30
-21.04
-15.38
-6.32
3.91
12.92
19.22
22.80
24.81
26.69
29.34
32.68
35.88
38.05
38.86
38.55
37.75
36.91
36.02
34.63
32.00
27.43
20.49
11.23
0.33
-10.90
-20.74
-27.64
-30.84
-30.92
-29.74
-29.66
-32.41
-38.16
-45.37
-51.56
-54.54
-53.43
-48.85
-42.37
-35.69
-30.09
-26.34
-24.76
-25.35
-27.59
-30.35
-31.99
-30.92
-26.38
-18.82
-9.77
-1.11
5.88
10.97
14.98
19.07
24.07
29.99
36.16
41.54
45.34
47.30
47.65
46.90
45.39
43.13
39.79
35.00
28.61
20.85
12.29
3.53
-5.02
-13.23
-21.14
-28.59
-35.26
-40.67
-44.49
-46.70
-47.56
-47.27
-45.87
-43.22
-39.19
-34.11
-28.87
-24.90
-23.73
-26.32
-32.40
-40.25
-47.07
-49.97
-47.17
-38.76
-26.70
-13.91
-2.96
5.04
10.65
15.59
21.69
29.86
39.72
49.83
58.35
63.80
65.64
64.28
60.72
56.01
50.76
45.04
38.66
31.55
23.94
16.27
8.79
1.31
-6.66
-15.44
-24.72
-33.41
-40.12
-43.79
-44.24
-42.24
-39.09
-36.08
-33.95
-32.84
-32.25
-31.58
-30.51
-29.44
-29.60
-32.32
-38.03
-45.47
-51.80
-53.70
-49.07
-38.09
-23.16
-7.58
6.21
17.64
27.79
38.17
49.44
60.78
70.25
75.87
76.54
72.48
65.05
56.24
47.85
41.08
36.09
32.13
28.04
22.74
15.66
6.82
-3.41
-14.40
-25.24
-34.52
-40.55
-41.88
-38.27
-31.27
-23.98
-19.81
-21.02
-27.62
-37.47
-47.45
-54.78
-58.07
-57.43
-54.15
-50.13
-47.30
-47.03
-49.68
-54.32
-58.76
-60.32
-56.83
-47.52
-33.29
-16.17
1.59
18.22
32.84
45.22
55.37
63.18
68.35
70.59
69.81
66.37
61.17
55.38
50.00
45.34
40.85
35.35
27.66
17.36
5.04
-7.89
-19.82
-29.42
-35.96
-39.15
-39.04
-36.11
-31.49
-26.94
-24.51
-25.78
-31.08
-39.28
-48.14
-55.27
-59.18
-59.75
-58.21
-56.63
-56.94
-59.95
-64.87
-69.30
-70.00
-64.19
-50.77
-30.88
-7.52
15.73
36.08
52.30
64.72
74.38
82.05
87.68
90.60
90.14
86.32
80.10
72.97
66.13
59.90
53.60
46.13
36.74
25.64
14.05
3.63
-4.23
-8.88
-10.47
-9.69
-7.38
-4.52
-2.17
-1.52
-3.57
-8.73
-16.27
-24.59
-31.71
-36.29
-38.20
-38.58
-39.17
-41.57
-46.47
-53.37
-60.63
-66.02
-67.25
-62.60
-51.55
-34.91
-14.70
6.42
25.99
42.36
54.97
64.21
70.74
75.01
76.97
76.21
72.40
65.87
57.77
49.71
43.10
38.43
35.15
31.94
27.54
21.28
13.39
4.71
-3.62
-10.51
-15.04
-16.52
-14.85
-10.86
-6.40
-3.89
-5.35
-11.38
-20.76
-31.07
-39.79
-45.59
-48.50
-49.57
-49.94
-50.33
-50.95
-51.59
-51.76
-50.76
-47.66
-41.64
-32.45
-20.74
-7.95
4.26
14.73
23.12
29.80
35.27
39.66
42.55
43.24
41.36
37.20
31.92
27.13
24.37
24.37
26.73
29.92
31.93
31.07
26.61
19.03
9.64
0.05
-8.36
-14.65
-18.35
-19.48
-18.59
-16.94
-16.10
-17.53
-21.78
-28.14
-34.88
-39.91
-41.77
-40.20
-36.20
-31.55
-28.17
-27.34
-29.06
-32.07
-34.15
-32.92
-26.94
-16.30
-2.79
10.92
22.33
30.21
34.78
37.34
39.29
41.37
43.50
45.05
45.52
44.97
44.05
43.40
43.15
42.68
40.86
36.78
30.36
22.66
15.52
10.68
8.85
9.21
9.82
8.59
4.35
-2.61
-10.80
-18.41
-24.26
-28.13
-30.57
-32.18
-33.14
-33.12
-31.65
-28.69
-24.98
-21.78
-20.20
-20.62
-22.29
-23.75
-23.52
-20.88
-16.18
-10.51
-5.07
-0.41
3.76
8.22
13.66
20.02
26.53
31.94
35.19
35.97
34.90
33.28
32.58
33.63
36.06
38.24
37.81
32.77
22.56
8.50
-6.58
-19.55
-28.17
-31.94
-32.00
-30.31
-28.78
-28.50
-29.63
-31.65
-33.73
-35.09
-35.20
-33.80
-31.02
-27.41
-23.93
-21.71
-21.70
-24.14
-28.24
-32.39
-34.61
-33.45
-28.55
-20.80
-11.83
-3.17
4.48
11.40
18.48
26.60
35.94
45.85
55.14
62.70
67.96
71.17
73.10
74.45
75.26
74.70
71.49
64.72
54.39
41.58
27.92
14.94
3.58
-5.69
-12.64
-17.11
-19.15
-19.36
-18.92
-19.14
-20.63
-22.83
-24.27
-23.52
-20.27
-15.71
-12.02
-11.23
-14.31
-20.96
-29.94
-39.55
-48.13
-54.22
-56.74
-55.27
-50.15
-42.29
-32.73
-22.08
-10.25
3.16
18.23
34.07
48.82
60.35
67.25
69.54
68.68
66.86
66.02
66.91
68.87
69.97
67.81
60.43
46.96
27.90
5.05
-18.70
-39.82
-54.86
-61.36
-58.77
-49.00
-35.93
-24.07
-16.75
-14.96
-17.31
-21.16
-24.28
-25.88
-26.51
-27.26
-28.76
-30.90
-33.32
-35.91
-39.01
-43.03
-47.78
-52.30
-54.99
-54.35
-49.53
-40.63
-28.51
-14.44
0.17
13.95
25.66
34.34
39.47
41.14
40.19
38.05
36.39
36.63
39.22
43.26
46.55
46.41
40.76
29.05
12.69
-5.54
-22.47
-35.50
-43.16
-45.04
-41.46
-33.36
-22.27
-10.30
0.21
7.34
10.17
9.03
5.19
0.10
-5.10
-9.87
-14.17
-18.28
-22.82
-28.60
-36.21
-45.44
-54.81
-61.68
-63.24
-57.74
-45.48
-28.74
-10.74
5.78
19.55
30.76
40.28
48.64
55.45
59.72
60.61
58.15
53.51
48.54
44.89
43.19
42.69
41.60
37.97
30.59
19.45
5.71
-8.76
-21.80
-31.32
-35.55
-33.54
-25.58
-13.52
-0.52
9.97
15.57
15.91
12.62
8.24
4.89
3.25
2.60
1.56
-1.08
-6.02
-13.34
-22.54
-32.44
-41.07
-46.00
-45.19
-37.97
-25.57
-10.73
3.50
15.01
23.34
29.37
34.37
39.09
43.42
46.77
48.67
49.18
48.82
48.02
46.83
44.88
41.70
37.08
31.23
24.68
17.94
11.38
5.18
-0.37
-4.79
-7.41
-7.75
-5.96
-3.02
-0.60
-0.30
-3.11
-8.94
-16.86
-25.55
-33.81
-40.76
-45.76
-48.36
-48.40
-46.39
-43.53
-41.51
-41.72
-44.39
-48.24
-51.00
-50.48
-45.70
-37.33
-27.21
-17.35
-9.00
-2.23
3.61
9.28
15.01
20.42
24.85
27.85
29.41
29.89
29.77
29.28
28.38
26.98
25.24
23.72
23.36
25.04
29.07
34.76
40.35
43.58
42.47
36.26
25.73
13.14
1.55
-6.08
-7.63
-2.26
9.59
26.34
45.50
63.72
76.99
81.13
72.85
51.20
18.68
-18.81
-53.35
-77.60
-87.27
-82.53
-67.57
-48.58
-31.13
-18.46
-10.95
-7.05
-4.71
-2.48
0.15
3.08
6.12
9.38
13.09
17.23
21.20
23.90
24.25
21.88
17.43
12.50
8.93
7.94
9.48
12.17
13.77
12.12
6.01
-4.18
-16.52
-27.92
-35.07
-35.43
-28.14
-14.29
3.35
21.16
35.68
44.30
45.42
38.25
22.96
0.84
-25.28
-51.15
-72.05
-84.35
-86.94
-81.60
-71.99
-61.75
-52.69
-44.22
-34.15
-20.46
-2.86
16.76
35.13
49.08
56.89
58.80
56.45
52.02
47.19
42.59
37.81
31.97
24.41
15.25
5.42
-3.77
-11.28
-16.74
-20.34
-22.44
-23.10
-22.02
-18.96
-14.14
-8.52
-3.38
0.31
2.39
3.52
4.61
6.00
6.99
5.90
0.78
-9.58
-24.83
-42.69
-59.43
-71.00
-74.43
-68.89
-55.85
-38.40
-19.88
-2.74
12.01
24.43
34.78
42.90
48.14
49.83
47.89
43.18
37.25
31.84
28.24
26.90
27.31
28.21
28.15
25.93
21.11
14.12
6.09
-1.61
-7.83
-11.97
-14.03
-14.32
-13.35
-11.65
-9.75
-8.21
-7.44
-7.59
-8.38
-9.20
-9.32
-8.43
-7.03
-6.56
-9.05
-16.12
-27.98
-42.77
-57.00
-66.77
-69.42
-64.47
-53.65
-39.86
-25.79
-12.85
-1.02
10.39
21.80
32.70
41.58
46.68
46.83
42.06
33.58
23.37
13.47
5.23
-0.85
-5.01
-7.61
-8.73
-8.16
-5.84
-2.30
1.18
3.08
2.37
-0.93
-5.80
-10.77
-14.74
-17.32
-18.82
-19.72
-20.27
-20.20
-19.07
-16.61
-13.21
-9.96
-8.40
-9.92
-15.22
-23.69
-33.44
-41.87
-46.64
-46.63
-42.26
-35.05
-26.64
-17.80
-8.24
2.84
15.63
29.04
40.80
48.42
50.51
47.40
40.91
33.19
25.65
18.43
10.79
2.12
-7.30
-16.12
-22.44
-24.77
-22.63
-16.67
-8.29
0.91
9.47
16.11
19.89
20.23
17.23
11.81
5.50
-0.04
-3.58
-4.81
-4.37
-3.68
-4.46
-8.18
-15.36
-25.23
-35.66
-43.87
-47.54
-45.89
-40.10
-32.62
-25.84
-20.66
-16.01
-9.53
0.88
15.52
32.39
47.92
58.53
62.14
58.75
50.04
38.37
25.86
14.04
4.04
-3.25
-7.08
-7.06
-3.44
2.90
10.68
18.72
26.14
32.32
36.68
38.49
37.15
32.45
25.05
16.34
8.04
1.56
-2.39
-3.91
-3.73
-2.97
-2.89
-4.70
-9.33
-17.01
-26.99
-37.52
-46.37
-51.63
-52.46
-49.36
-43.71
-36.93
-29.70
-21.75
-12.43
-1.63
9.68
19.49
25.70
27.09
24.07
18.46
12.67
8.68
7.38
8.51
11.06
13.91
16.33
18.25
20.20
23.01
27.48
33.92
41.78
49.71
55.89
58.65
57.15
51.67
43.43
34.13
25.43
18.64
14.68
14.04
16.62
21.42
26.51
29.36
27.73
20.67
9.06
-4.70
-17.68
-27.61
-33.71
-36.53
-37.30
-37.01
-35.90
-33.64
-29.92
-24.92
-19.48
-14.65
-11.14
-9.01
-7.66
-6.28
-4.32
-1.88
0.37
1.54
1.00
-1.18
-4.26
-7.14
-8.80
-8.79
-7.23
-4.80
-2.39
-0.91
-0.94
-2.58
-5.39
-8.40
-10.36
-10.09
-7.00
-1.34
5.67
12.13
15.84
14.95
8.49
-3.16
-18.19
-33.73
-46.72
-54.89
-57.55
-55.59
-50.88
-45.22
-39.53
-33.57
-26.38
-17.21
-6.08
6.03
17.54
27.04
33.74
37.74
39.70
40.48
40.60
40.09
38.60
35.83
31.90
27.47
23.47
20.61
18.98
17.92
16.51
14.15
11.05
8.18
6.75
7.48
10.18
13.84
17.27
19.74
21.28
22.34
23.17
23.21
21.15
15.54
5.78
-7.25
-21.28
-33.55
-41.97
-45.85
-45.97
-43.75
-40.34
-35.99
-30.17
-22.26
-12.24
-1.06
9.71
18.58
24.82
28.74
31.39
33.86
36.61
39.23
40.66
39.77
36.02
29.93
22.83
16.27
11.38
8.44
6.96
6.12
5.28
4.24
3.19
2.45
2.31
2.92
4.39
6.80
10.14
14.15
18.12
20.81
20.57
15.73
5.17
-10.98
-31.03
-51.87
-69.82
-81.80
-86.42
-84.24
-77.23
-67.66
-57.06
-45.84
-33.69
-20.46
-6.86
5.53
14.87
20.04
21.20
19.68
17.22
15.12
13.64
12.09
9.54
5.51
0.39
-4.65
-8.21
-9.17
-7.00
-1.86
5.49
13.74
21.24
26.21
27.30
24.11
17.39
8.89
0.69
-5.49
-8.77
-9.27
-7.95
-6.47
-6.79
-10.71
-19.11
-31.31
-44.91
-56.45
-62.77
-62.31
-55.70
-45.27
-33.76
-23.03
-13.45
-4.32
5.18
15.07
24.37
31.56
35.49
35.96
33.85
30.63
27.60
25.27
23.17
20.28
15.63
9.04
1.40
-5.61
-10.19
-11.20
-8.67
-3.67
1.97
6.38
8.13
6.67
2.41
-3.33
-8.72
-12.03
-12.23
-9.41
-4.76
-0.24
2.06
0.41
-6.13
-17.51
-32.49
-48.56
-62.29
-70.14
-69.65
-60.43
-44.58
-25.88
-8.43
4.99
13.70
18.88
22.52
26.18
30.33
34.37
37.28
38.30
37.27
34.49
30.28
24.80
18.02
10.16
2.08
-4.60
-7.89
-6.28
0.49
11.09
23.01
33.36
39.90
41.60
38.78
32.64
24.74
16.61
9.42
3.99
0.65
-0.76
-0.96
-1.12
-2.65
-6.94
-14.78
-26.02
-39.19
-51.65
-60.30
-62.66
-57.96
-47.55
-34.34
-21.54
-11.23
-3.71
2.24
8.24
15.15
22.45
28.62
31.91
31.34
27.06
20.18
12.23
4.63
-1.62
-5.93
-7.91
-7.19
-3.59
2.67
10.62
18.68
25.10
28.61
28.86
26.44
22.32
17.28
11.70
5.61
-0.79
-6.89
-11.75
-14.48
-14.72
-12.78
-9.56
-6.30
-4.30
-4.76
-8.48
-15.43
-24.41
-33.20
-39.24
-40.75
-37.54
-31.12
-23.93
-18.09
-14.34
-11.89
-9.14
-4.81
1.25
7.94
13.63
17.22
18.78
19.52
21.04
24.41
29.55
35.25
39.79
41.79
40.77
37.10
31.62
25.19
18.49
12.10
6.55
2.22
-0.95
-3.48
-6.18
-9.52
-13.14
-15.84
-16.13
-13.01
-6.67
1.49
9.35
14.75
16.08
12.55
4.35
-7.34
-20.39
-32.05
-39.70
-41.75
-38.19
-30.56
-21.12
-11.83
-3.61
3.81
11.31
19.56
28.44
37.00
43.99
48.55
50.71
51.34
51.67
52.62
54.28
55.85
56.14
54.40
50.84
46.70
43.57
42.37
42.78
43.32
42.10
37.73
29.91
19.46
7.85
-3.30
-12.59
-18.89
-21.50
-20.24
-15.67
-9.39
-3.79
-1.44
-4.12
-12.11
-23.87
-36.47
-46.52
-51.31
-49.87
-43.29
-34.38
-26.43
-21.79
-20.73
-21.36
-20.49
-15.34
-4.95
9.24
23.96
35.56
41.62
41.77
37.48
30.99
24.19
17.91
12.04
6.08
-0.12
-6.12
-11.17
-14.88
-17.51
-19.79
-22.32
-24.99
-26.82
-26.62
-23.71
-18.53
-12.42
-6.93
-2.93
-0.25
2.14
5.39
10.03
15.60
20.59
22.91
20.32
11.13
-5.05
-26.72
-50.41
-71.45
-85.45
-89.75
-84.34
-71.49
-54.61
-36.76
-19.75
-4.21
9.74
21.73
30.91
36.36
37.74
35.60
31.30
26.34
21.69
17.27
12.18
5.33
-3.57
-13.49
-21.99
-26.11
-23.46
-13.33
2.95
22.48
41.82
58.18
70.02
77.13
80.09
79.83
77.27
73.38
69.18
65.35
61.67
56.46
46.80
29.62
3.48
-29.92
-65.43
-95.92
-114.95
-119.42
-110.73
-93.81
-74.73
-58.01
-45.15
-34.95
-25.17
-14.35
-2.74
7.84
15.22
18.06
16.53
12.01
6.32
0.79
-4.17
-8.86
-13.67
-18.35
-21.75
-22.28
-18.93
-12.07
-3.59
3.92
8.41
9.39
7.96
5.87
4.43
3.83
3.34
2.13
0.04
-2.27
-3.88
-4.47
-4.84
-6.70
-11.75
-20.62
-32.25
-43.98
-52.40
-54.57
-49.19
-37.08
-20.87
-3.92
10.99
22.50
30.84
37.24
42.85
47.95
51.95
53.76
52.67
48.89
43.47
37.74
32.61
28.23
24.15
19.84
15.31
11.39
9.59
11.67
18.98
31.99
49.98
71.09
92.67
111.90
126.44
134.92
137.16
134.15
127.52
118.97
109.64
99.65
88.06
73.11
52.93
26.21
-6.97
-44.85
-84.01
-119.87
-147.53
-162.96
-164.14
-151.89
-129.83
-103.48
-78.57
-59.40
-47.65
-42.44
-41.29
-41.41
-40.74
-38.32
-34.03
-28.14
-20.99
-13.05
-5.04
2.09
7.33
9.95
9.87
7.87
5.30
3.43
2.75
2.49
0.87
-3.96
-12.96
-25.49
-39.49
-52.19
-61.20
-65.11
-63.50
-56.64
-45.18
-29.94
-12.29
5.82
21.69
32.32
35.12
28.69
13.51
-7.71
-30.43
-49.46
-60.61
-62.22
-55.70
-44.75
-33.59
-25.13
-19.91
-16.38
-12.21
-5.67
3.43
13.73
23.14
29.88
33.05
32.78
29.85
25.25
19.79
14.04
8.46
3.63
0.30
-0.88
0.30
3.22
6.55
8.76
8.83
6.73
3.44
0.31
-1.60
-2.01
-1.42
-0.53
0.14
0.66
1.39
2.59
3.90
4.32
2.44
-2.90
-11.99
-23.80
-36.11
-46.11
-51.42
-50.95
-45.30
-36.33
-26.33
-16.92
-8.52
-0.50
8.09
17.74
27.95
37.36
44.46
48.24
48.57
46.11
41.89
36.92
31.85
27.03
22.64
18.93
16.22
14.62
13.70
12.33
9.05
2.81
-6.28
-16.69
-25.96
-31.69
-32.61
-28.98
-22.39
-14.85
-7.91
-2.27
2.03
4.82
5.27
1.95
-6.49
-20.26
-37.59
-54.78
-67.16
-70.79
-63.99
-47.98
-26.35
-3.55
16.68
32.46
43.74
51.56
57.12
60.94
62.83
62.22
58.67
52.30
43.83
34.40
25.18
17.01
10.07
4.13
-1.20
-5.93
-9.57
-11.44
-11.22
-9.38
-7.13
-5.83
-6.28
-8.35
-11.11
-13.44
-14.59
-14.51
-13.55
-12.02
-9.92
-6.93
-2.88
1.62
4.99
4.96
-0.55
-12.32
-28.95
-46.83
-61.01
-66.93
-62.21
-47.56
-26.50
-4.05
15.11
28.07
34.17
34.64
31.75
27.80
24.48
22.62
22.23
22.80
23.54
23.69
22.63
19.97
15.61
9.87
3.60
-1.70
-4.12
-2.04
4.96
15.38
25.81
31.97
30.29
19.46
1.10
-20.71
-40.90
-55.18
-61.26
-59.28
-51.20
-39.75
-27.45
-16.29
-7.97
-4.10
-6.10
-14.44
-27.81
-42.73
-54.32
-57.95
-51.02
-34.21
-11.16
12.90
33.09
46.34
51.98
51.37
47.07
42.05
38.83
38.87
42.16
47.11
51.01
51.12
45.85
35.71
23.29
12.49
7.14
9.52
19.37
33.64
47.22
54.42
50.98
35.78
11.51
-16.09
-40.26
-55.81
-61.10
-58.72
-54.39
-54.27
-61.88
-76.14
-91.53
-100.36
-96.26
-77.07
-45.71
-8.86
25.86
52.67
69.06
75.58
74.41
67.96
58.30
47.22
36.66
28.76
25.07
25.71
28.85
31.33
29.95
23.05
11.53
-1.41
-11.49
-15.18
-11.13
-0.70
12.56
24.19
30.29
28.76
19.75
5.50
-10.39
-24.21
-33.39
-37.51
-38.44
-39.60
-44.38
-54.47
-68.78
-83.50
-93.44
-94.09
-83.54
-63.31
-37.73
-12.23
8.72
23.08
31.39
35.87
39.00
42.42
46.55
50.99
55.00
57.93
59.17
58.13
54.25
47.38
38.16
28.13
19.47
14.39
14.31
19.38
28.28
38.63
47.67
53.00
53.17
47.92
38.06
25.14
10.96
-2.75
-14.74
-24.37
-31.65
-37.09
-41.54
-45.92
-51.08
-57.57
-65.49
-74.26
-82.53
-88.24
-89.12
-83.44
-70.92
-53.02
-32.66
-13.18
2.89
14.59
22.57
28.30
33.11
37.46
40.94
42.76
42.51
40.53
37.85
35.73
34.97
35.74
37.52
39.65
41.71
43.88
46.75
50.91
56.38
62.31
67.01
68.44
64.93
55.70
41.22
23.16
3.99
-13.52
-27.11
-35.44
-38.40
-36.90
-32.42
-26.54
-20.74
-16.44
-14.92
-17.12
-23.15
-31.88
-40.95
-47.39
-48.78
-44.18
-34.69
-22.90
-11.88
-3.98
-0.08
0.53
-0.30
-0.34
2.25
8.26
17.19
27.36
36.47
42.37
43.69
40.23
32.89
23.49
14.23
7.27
4.26
6.09
12.54
22.11
32.19
39.47
40.87
34.47
20.27
0.30
-21.89
-42.22
-57.13
-64.47
-63.88
-56.60
-44.96
-31.79
-19.87
-11.64
-8.89
-12.45
-21.80
-34.93
-48.54
-58.75
-62.22
-57.30
-44.74
-27.47
-9.43
5.92
16.85
23.72
28.45
33.29
39.74
47.91
56.68
64.27
69.04
69.98
66.92
60.44
51.73
42.30
33.75
27.48
24.38
24.68
27.72
31.98
35.37
35.67
31.28
21.75
8.11
-7.43
-22.08
-33.36
-39.89
-41.62
-39.75
-36.01
-32.09
-29.17
-27.96
-28.96
-32.66
-39.37
-48.78
-59.59
-69.40
-75.39
-75.28
-68.31
-55.66
-39.90
-23.93
-9.93
1.31
10.19
17.79
25.04
32.36
39.49
45.71
50.10
51.82
50.35
45.57
37.87
28.09
17.39
7.09
-1.62
-7.72
-10.55
-9.95
-6.38
-1.09
4.06
7.01
6.10
0.69
-8.53
-19.69
-30.33
-38.17
-41.89
-41.39
-37.73
-32.60
-27.80
-24.90
-25.08
-29.12
-37.29
-48.97
-62.37
-74.55
-81.94
-81.37
-71.33
-52.66
-28.55
-3.51
18.10
33.52
42.28
45.99
47.26
48.39
50.38
52.77
54.23
53.48
50.06
44.36
37.24
29.45
21.39
13.33
5.91
0.44
-1.51
1.12
7.92
16.69
24.03
26.64
22.54
11.98
-2.79
-18.43
-31.72
-40.65
-44.81
-45.26
-43.69
-41.78
-40.64
-40.86
-42.97
-47.58
-55.20
-65.56
-76.87
-85.80
-88.35
-81.42
-64.40
-39.72
-11.97
13.84
34.19
48.14
57.08
63.45
69.25
75.07
80.02
82.54
81.33
76.00
67.13
55.98
43.95
32.36
22.31
14.77
10.67
10.59
14.46
21.15
28.46
33.65
34.34
29.40
19.39
6.28
-7.36
-19.37
-28.64
-35.18
-39.70
-42.97
-45.49
-47.55
-49.56
-52.43
-57.30
-64.81
-74.26
-83.26
-88.24
-85.86
-74.51
-55.19
-31.25
-6.99
13.92
29.65
40.30
47.20
51.76
54.73
56.03
55.13
51.65
45.77
38.35
30.72
24.28
19.99
18.10
18.15
19.24
20.63
22.11
24.05
26.96
30.85
34.84
37.22
36.04
29.94
18.81
3.94
-12.24
-27.02
-38.23
-44.85
-47.21
-46.60
-44.59
-42.47
-41.01
-40.60
-41.45
-43.58
-46.59
-49.30
-49.94
-46.69
-38.60
-26.25
-11.72
2.22
13.21
20.18
23.48
24.39
24.41
24.70
25.86
28.06
31.15
34.84
38.77
42.52
45.71
48.05
49.37
49.70
49.21
48.21
47.01
45.80
44.42
42.37
38.87
33.01
24.08
11.86
-3.06
-19.15
-34.20
-45.80
-52.11
-52.61
-48.26
-41.22
-34.04
-28.82
-26.61
-27.45
-30.48
-34.37
-37.67
-39.03
-37.61
-33.24
-26.61
-19.00
-11.81
-5.96
-1.56
2.11
6.14
11.48
18.59
27.23
36.53
45.36
52.61
57.57
60.01
60.09
58.17
54.59
49.69
43.89
37.84
32.30
27.90
24.72
22.17
19.09
14.23
6.82
-3.09
-14.49
-25.74
-34.97
-40.70
-42.18
-39.70
-34.54
-28.57
-23.75
-21.59
-22.79
-27.17
-33.76
-41.11
-47.53
-51.57
-52.35
-49.88
-45.02
-39.07
-33.11
-27.44
-21.44
-14.00
-4.21
8.01
21.76
35.41
47.21
55.87
60.76
61.92
59.85
55.34
49.29
42.63
36.17
30.47
25.73
21.87
18.49
15.14
11.34
6.74
1.14
-5.47
-12.76
-20.06
-26.31
-30.39
-31.46
-29.40
-24.94
-19.52
-14.72
-11.77
-11.24
-13.15
-17.26
-23.25
-30.64
-38.66
-46.14
-51.81
-54.71
-54.50
-51.45
-45.90
-37.95
-27.30
-13.74
2.34
19.65
36.14
49.77
59.13
63.86
64.58
62.46
58.71
54.21
49.36
44.10
38.12
31.11
23.01
14.15
5.22
-2.90
-9.32
-13.32
-14.45
-12.69
-8.59
-3.22
2.04
5.98
8.07
8.68
8.82
9.54
11.28
13.57
15.26
15.01
11.81
5.33
-4.14
-15.74
-28.18
-39.75
-48.50
-52.57
-50.75
-42.84
-29.76
-13.32
4.31
21.18
35.91
47.81
56.68
62.57
65.48
65.37
62.28
56.61
49.07
40.49
31.48
22.22
12.58
2.48
-7.67
-16.79
-23.40
-26.26
-24.87
-19.79
-12.36
-4.39
2.36
6.45
7.05
4.18
-1.24
-7.52
-12.78
-15.67
-15.94
-14.51
-12.98
-13.05
-15.90
-21.88
-30.39
-39.90
-48.15
-52.51
-50.74
-41.92
-27.08
-9.08
8.34
22.06
30.68
34.90
36.86
38.81
42.08
46.51
50.78
53.15
52.05
46.53
36.35
22.00
4.74
-13.33
-29.52
-41.05
-45.67
-42.44
-32.07
-16.88
-0.32
13.88
22.72
24.66
20.05
10.89
0.17
-9.15
-14.91
-16.30
-13.74
-8.58
-2.59
2.40
4.81
3.57
-1.38
-8.84
-16.43
-21.28
-21.08
-15.13
-4.64
7.76
19.08
27.24
31.62
33.05
33.14
33.55
35.37
38.90
43.60
48.21
51.07
50.50
45.28
35.22
21.55
6.75
-6.12
-14.44
-16.92
-14.02
-7.62
-0.17
6.16
10.04
11.05
9.43
5.66
0.22
-6.33
-13.31
-19.79
-24.74
-27.35
-27.39
-25.35
-22.41
-20.02
-19.48
-21.44
-25.73
-31.44
-37.19
-41.50
-43.08
-41.08
-35.29
-26.25
-15.15
-3.57
6.96
15.41
21.62
26.11
29.68
32.86
35.59
37.23
37.13
35.13
31.83
28.38
25.99
25.38
26.54
28.81
31.24
33.12
34.19
34.62
34.71
34.55
33.83
31.88
27.97
21.63
12.95
2.71
-7.76
-16.94
-23.54
-26.87
-26.92
-24.28
-19.91
-14.85
-10.20
-6.94
-5.68
-6.47
-8.46
-10.11
-9.65
-5.96
0.85
9.36
17.46
23.30
26.05
26.14
24.77
23.20
22.17
21.76
21.61
21.36
20.93
20.62
20.79
21.56
22.59
23.15
22.44
20.06
16.29
12.23
9.30
8.64
10.37
13.40
15.82
15.62
11.64
3.89
-6.40
-17.42
-27.39
-35.04
-39.72
-41.32
-40.05
-36.35
-31.02
-25.46
-21.56
-21.15
-25.13
-32.64
-41.02
-46.66
-46.52
-39.57
-27.35
-13.23
-0.84
7.50
11.49
12.55
12.74
13.67
15.87
18.99
22.23
24.96
26.88
28.04
28.60
28.76
28.54
27.83
26.41
24.10
21.03
17.72
14.94
13.35
12.95
12.94
11.80
7.87
0.09
-11.46
-25.36
-39.23
-50.41
-56.85
-57.63
-53.26
-45.46
-36.57
-28.94
-24.36
-23.68
-26.65
-32.02
-37.92
-42.26
-43.40
-40.61
-34.36
-26.01
-17.21
-9.20
-2.36
3.69
9.64
15.87
22.13
27.75
31.93
34.17
34.47
33.21
30.85
27.70
23.81
19.06
13.45
7.25
1.19
-3.62
-5.95
-4.72
0.59
9.55
20.51
30.70
36.69
35.50
25.74
8.58
-12.32
-31.98
-45.98
-52.14
-51.11
-45.64
-38.97
-33.39
-29.75
-28.00
-28.10
-30.46
-35.52
-42.86
-50.63
-55.95
-56.08
-49.76
-37.83
-22.72
-7.31
6.36
17.64
26.98
35.18
42.61
48.94
53.40
55.20
54.09
50.37
44.74
37.97
30.73
23.59
17.07
11.81
8.50
7.63
9.24
12.75
16.99
20.53
22.05
20.63
15.85
7.83
-2.77
-14.74
-26.51
-36.37
-42.94
-45.56
-44.37
-40.23
-34.41
-28.45
-24.10
-23.08
-26.66
-34.95
-46.30
-57.46
-64.52
-64.43
-56.23
-41.35
-22.87
-4.21
12.11
24.96
34.33
40.81
45.11
47.79
49.31
49.91
49.59
47.96
44.45
38.58
30.32
20.34
9.93
0.77
-5.26
-6.45
-1.70
8.83
23.13
37.43
47.09
48.28
39.52
22.28
0.31
-21.97
-41.05
-55.15
-64.06
-68.33
-68.68
-65.87
-60.96
-55.65
-52.08
-52.16
-56.80
-65.35
-75.66
-84.56
-88.79
-85.98
-75.45
-58.61
-38.45
-18.65
-2.28
9.25
16.37
20.87
24.74
29.27
34.54
39.56
42.99
43.73
41.32
35.89
28.05
18.70
9.07
0.70
-4.65
-5.40
-0.73
8.84
21.29
33.59
42.64
46.30
43.86
36.07
24.56
11.27
-1.98
-13.67
-22.64
-28.20
-30.35
-29.81
-27.92
-26.41
-26.93
-30.67
-37.98
-48.15
-59.29
-68.62
-73.13
-70.58
-60.40
-44.10
-24.70
-5.60
10.75
23.52
33.35
41.51
48.92
55.59
60.68
63.02
61.72
56.60
48.29
38.05
27.44
18.07
11.22
7.62
7.44
10.26
15.28
21.37
27.23
31.48
32.87
30.58
24.55
15.47
4.64
-6.48
-16.75
-25.54
-32.89
-39.21
-44.92
-50.15
-54.61
-57.68
-58.84
-58.06
-55.98
-53.75
-52.44
-52.29
-52.40
-50.96
-46.09
-36.86
-23.88
-9.14
4.84
16.08
23.79
28.43
31.11
32.77
33.76
33.78
32.29
29.11
24.68
19.94
15.93
13.31
12.18
12.24
13.15
14.84
17.57
21.64
27.01
32.90
38.00
40.79
40.19
35.78
27.84
17.04
4.19
-9.72
-23.40
-35.26
-43.55
-46.99
-45.31
-39.50
-31.55
-23.88
-18.45
-16.41
-18.04
-22.87
-29.94
-37.81
-44.73
-48.94
-49.20
-45.24
-37.95
-28.97
-19.89
-11.54
-3.72
4.41
13.57
23.70
33.86
42.68
49.08
52.81
54.50
55.21
55.68
55.95
55.28
52.66
47.48
40.01
31.55
23.87
18.42
15.66
14.82
14.34
12.63
8.93
3.67
-1.84
-6.12
-8.44
-9.16
-9.50
-10.91
-14.14
-18.95
-24.15
-28.30
-30.45
-30.58
-29.68
-29.28
-30.83
-34.93
-40.98
-47.25
-51.46
-51.69
-47.12
-38.37
-27.16
-15.55
-5.18
3.16
9.54
14.46
18.45
21.74
24.32
26.04
26.77
26.52
25.36
23.44
20.85
17.42
12.75
6.41
-1.60
-10.51
-18.69
-24.21
-25.65
-22.83
-16.83
-9.41
-2.14
4.19
9.52
13.94
17.15
18.29
16.37
10.93
2.48
-7.45
-16.89
-24.06
-27.95
-28.59
-27.04
-25.18
-25.24
-29.05
-37.14
-48.07
-58.48
-64.17
-61.67
-49.85
-30.50
-7.68
13.98
31.03
42.25
48.57
51.99
54.36
56.49
58.11
58.33
56.42
52.21
46.09
38.73
30.66
22.33
14.23
7.24
2.57
1.37
4.09
10.00
17.22
23.44
26.90
27.05
24.64
21.04
17.37
13.97
10.42
6.08
0.55
-5.98
-12.99
-19.89
-26.21
-31.56
-35.61
-38.14
-39.17
-39.11
-38.53
-37.76
-36.52
-33.90
-28.80
-20.63
-9.92
1.74
12.22
19.72
23.39
23.54
21.19
17.51
13.28
8.65
3.45
-2.44
-8.58
-13.87
-16.89
-16.65
-13.15
-7.59
-1.75
2.81
5.50
6.70
7.35
8.31
10.04
12.67
16.11
20.14
24.15
27.00
27.34
24.20
17.72
9.28
0.99
-5.31
-8.73
-9.46
-8.28
-6.07
-3.56
-1.41
-0.38
-1.05
-3.44
-6.67
-9.25
-9.72
-7.57
-3.48
0.92
3.89
4.51
3.05
0.83
-0.56
0.12
3.21
8.20
14.15
20.11
25.38
29.64
32.82
34.88
35.74
35.28
33.44
30.35
26.42
22.29
18.58
15.69
13.60
11.70
8.94
4.16
-3.31
-13.19
-24.02
-33.55
-39.53
-40.51
-36.33
-28.09
-17.77
-7.67
0.06
3.87
3.11
-1.65
-8.64
-15.40
-19.62
-20.06
-17.02
-12.08
-7.24
-3.96
-2.51
-2.08
-1.28
1.06
5.50
11.78
19.13
26.62
33.43
38.95
42.79
44.62
44.17
41.22
35.74
28.15
19.50
11.40
5.54
3.07
3.97
6.94
9.81
10.31
6.95
-0.41
-10.50
-21.15
-29.96
-35.11
-35.78
-32.28
-25.91
-18.65
-12.76
-10.37
-12.86
-20.40
-31.68
-44.13
-54.66
-60.66
-60.93
-55.94
-47.42
-37.43
-27.40
-17.78
-8.30
1.52
11.75
21.90
31.19
38.91
44.71
48.68
51.13
52.35
52.47
51.54
49.54
46.61
42.99
39.10
35.41
32.24
29.58
27.01
23.77
19.13
12.66
4.54
-4.50
-13.37
-20.87
-26.08
-28.44
-27.97
-25.22
-21.17
-16.97
-13.67
-12.04
-12.58
-15.63
-21.41
-29.96
-40.83
-52.85
-64.10
-72.45
-76.15
-74.46
-67.77
-57.26
-44.29
-29.94
-14.78
0.96
17.07
33.07
48.18
61.38
71.72
78.50
81.40
80.51
76.23
69.14
59.76
48.51
35.77
22.09
8.41
-3.98
-13.67
-19.63
-21.72
-20.78
-18.44
-16.39
-15.66
-16.10
-16.47
-15.16
-10.99
-3.98
4.50
12.19
16.74
16.45
10.65
-0.32
-15.28
-32.52
-49.86
-64.71
-74.40
-76.71
-70.56
-56.50
-36.70
-14.34
7.33
25.84
39.95
49.57
55.37
58.23
58.98
58.37
56.87
54.74
51.81
47.66
41.84
34.18
24.98
15.02
5.35
-2.88
-8.67
-11.23
-10.15
-5.56
1.73
10.20
17.89
22.93
24.07
21.05
14.52
5.75
-3.86
-12.99
-20.62
-26.00
-29.02
-30.34
-31.42
-34.11
-39.85
-48.72
-58.96
-67.42
-70.72
-66.67
-55.26
-38.60
-19.95
-2.38
12.29
23.78
32.81
40.36
47.02
52.80
57.40
60.47
61.83
61.37
58.96
54.44
47.77
39.43
30.49
22.50
16.98
14.84
15.94
19.20
22.89
25.33
25.42
22.79
17.85
11.52
4.90
-0.97
-5.30
-7.78
-8.61
-8.32
-7.58
-6.88
-6.55
-6.75
-7.62
-9.35
-11.97
-15.17
-18.18
-20.01
-19.84
-17.41
-13.20
-8.17
-3.32
0.74
3.99
6.79
9.66
12.90
16.47
20.00
22.88
24.52
24.56
23.00
20.27
17.10
14.35
12.72
12.44
13.27
14.57
15.66
16.08
15.74
14.88
13.79
12.63
11.29
9.51
7.06
3.92
0.27
-3.55
-7.26
-10.71
-13.79
-16.40
-18.37
-19.58
-20.16
-20.45
-20.91
-21.88
-23.34
-24.86
-25.84
-25.85
-24.86
-23.37
-22.12
-21.75
-22.53
-24.17
-25.93
-26.92
-26.36
-23.87
-19.57
-13.92
-7.53
-0.87
5.80
12.29
18.25
23.10
26.12
26.79
25.11
21.74
17.70
14.03
11.36
9.75
8.70
7.36
4.82
0.40
-6.00
-13.75
-21.45
-27.37
-30.07
-29.03
-24.90
-19.15
-13.49
-9.17
-6.73
-6.08
-6.84
-8.68
-11.38
-14.83
-18.82
-23.10
-27.39
-31.40
-34.71
-36.69
-36.43
-32.96
-25.63
-14.44
-0.20
15.57
31.02
44.44
54.57
60.80
63.06
61.71
57.48
51.33
44.36
37.67
32.14
28.22
25.81
24.39
23.23
21.74
19.65
17.02
14.13
11.24
8.45
5.68
2.86
0.07
-2.36
-3.99
-4.51
-3.89
-2.59
-1.43
-1.39
-3.31
-7.60
-14.09
-22.11
-30.66
-38.60
-44.82
-48.34
-48.39
-44.57
-36.96
-26.20
-13.46
-0.24
12.03
22.25
29.88
34.92
37.78
39.12
39.68
40.08
40.68
41.46
41.86
41.03
38.11
32.70
25.19
16.71
8.76
2.59
-1.28
-3.23
-4.18
-5.05
-6.30
-7.76
-8.88
-9.07
-8.11
-6.23
-4.10
-2.53
-2.35
-4.24
-8.70
-15.96
-25.96
-38.13
-51.34
-63.93
-73.91
-79.42
-79.21
-73.09
-62.05
-48.05
-33.33
-19.83
-8.70
-0.34
5.40
8.85
10.46
10.81
10.64
10.68
11.34
12.48
13.37
13.03
10.81
6.79
1.84
-2.72
-5.67
-6.45
-5.27
-3.07
-1.06
-0.23
-0.96
-2.91
-5.25
-7.07
-7.84
-7.63
-6.91
-6.20
-5.76
-5.62
-5.91
-7.11
-10.06
-15.47
-23.23
-31.98
-39.36
-42.71
-40.25
-31.69
-18.33
-2.49
13.41
27.54
39.07
47.91
54.33
58.55
60.51
60.01
57.03
51.98
45.73
39.46
34.36
31.32
30.80
32.86
37.28
43.53
50.69
57.35
61.60
61.32
54.82
41.39
21.75
-1.87
-26.33
-48.40
-65.69
-77.19
-83.46
-86.17
-87.42
-89.04
-92.16
-97.14
-103.50
-110.12
-115.36
-117.38
-114.47
-105.61
-90.83
-71.27
-48.97
-26.29
-5.36
12.31
25.98
35.56
41.45
44.30
44.80
43.53
40.81
36.87
31.95
26.54
21.33
17.07
14.32
13.29
13.86
15.73
18.56
22.10
26.06
30.04
33.42
35.41
35.15
31.91
25.26
15.30
2.83
-10.72
-23.59
-34.12
-41.30
-45.03
-45.98
-45.17
-43.49
-41.59
-39.85
-38.61
-38.16
-38.58
-39.44
-39.74
-38.10
-33.42
-25.33
-14.47
-2.31
9.39
19.11
25.98
29.89
31.39
31.37
30.68
29.83
28.96
27.90
26.45
24.62
22.68
21.02
19.94
19.42
19.21
19.06
18.92
19.02
19.70
21.13
22.99
24.48
24.48
21.94
16.26
7.55
-3.30
-14.79
-25.27
-33.39
-38.42
-40.27
-39.30
-36.13
-31.47
-26.15
-21.22
-17.84
-16.85
-18.29
-21.09
-23.34
-23.02
-18.96
-11.44
-2.06
7.06
14.34
19.50
23.42
27.55
32.87
39.33
45.88
51.08
53.79
53.67
51.09
46.84
41.69
36.18
30.70
25.59
21.29
18.11
16.06
14.63
12.87
9.71
4.41
-3.16
-12.36
-22.07
-31.04
-38.31
-43.48
-46.67
-48.19
-48.37
-47.26
-44.83
-41.26
-37.23
-33.90
-32.57
-34.05
-38.17
-43.66
-48.59
-51.06
-49.82
-44.50
-35.53
-23.72
-9.99
4.79
19.70
33.79
46.07
55.68
62.09
65.24
65.46
63.41
59.89
55.66
51.34
47.28
43.51
39.83
35.89
31.36
26.10
20.23
13.95
7.47
0.88
-5.87
-12.74
-19.48
-25.45
-29.79
-31.81
-31.39
-29.21
-26.63
-25.20
-26.00
-29.37
-34.95
-42.03
-49.94
-58.09
-65.74
-71.76
-74.63
-72.86
-65.68
-53.58
-38.27
-22.08
-7.08
5.60
15.92
24.50
31.95
38.39
43.44
46.56
47.51
46.57
44.35
41.48
38.24
34.52
30.13
25.12
20.03
15.81
13.41
13.31
15.14
17.73
19.43
18.73
14.74
7.54
-1.79
-11.45
-19.44
-24.27
-25.33
-23.17
-19.20
-15.26
-13.02
-13.57
-17.27
-23.73
-31.93
-40.34
-47.20
-50.77
-49.87
-44.24
-34.73
-22.99
-10.98
-0.30
8.20
14.47
19.01
22.42
25.09
27.05
27.98
27.54
25.46
21.77
16.86
11.40
6.19
2.01
-0.61
-1.51
-0.90
0.68
2.55
4.16
5.19
5.62
5.56
5.15
4.35
3.07
1.31
-0.73
-2.57
-3.65
-3.57
-2.28
-0.08
2.49
4.83
6.34
6.52
4.94
1.47
-3.52
-9.01
-13.55
-15.74
-14.81
-10.91
-5.09
1.27
7.07
11.89
16.02
19.91
23.73
27.08
29.13
29.20
27.24
24.03
20.84
18.92
18.95
20.88
24.14
28.01
31.82
34.93
36.60
35.79
31.42
22.74
9.84
-6.23
-23.60
-40.03
-53.49
-62.48
-66.21
-64.71
-58.69
-49.47
-38.80
-28.56
-20.37
-15.34
-13.84
-15.40
-18.83
-22.49
-24.72
-24.34
-21.00
-15.23
-8.09
-0.65
6.41
12.99
19.35
25.72
32.06
37.95
42.84
46.38
48.68
50.44
52.77
56.80
63.22
71.94
82.09
92.24
100.98
107.46
111.68
114.47
117.30
121.84
129.38
140.14
152.50
162.79
166.02
157.62
135.43
101.02
59.45
17.40
-19.44
-48.34
-70.06
-87.84
-105.65
-126.81
-153.22
-185.30
-221.85
-259.77
-294.17
-319.09
-329.33
-322.33
-299.31
-264.86
-225.13
-185.58
-149.37
-117.26
-88.44
-62.05
-38.01
-17.02
0.09
13.02
22.30
28.95
33.90
37.67
40.32
41.77
42.11
41.73
41.11
40.47
39.58
37.77
34.31
28.77
21.32
12.73
4.23
-2.85
-7.39
-8.80
-7.23
-3.55
0.84
4.47
6.24
5.52
2.12
-3.88
-12.25
-22.48
-33.56
-43.98
-52.05
-56.39
-56.33
-51.94
-43.71
-32.22
-17.89
-1.19
17.15
35.87
53.41
68.22
79.11
85.55
87.58
85.78
81.02
74.51
67.55
61.37
56.71
53.64
51.54
49.28
45.80
40.46
33.44
25.53
17.89
11.42
6.45
2.64
-0.82
-4.74
-9.66
-15.64
-22.43
-29.60
-36.67
-43.17
-48.84
-53.88
-59.05
-65.67
-74.97
-87.27
-101.24
-113.88
-121.35
-120.30
-109.22
-88.98
-62.42
-33.30
-5.00
20.16
41.13
57.77
70.30
78.97
83.96
85.41
83.67
79.33
73.10
65.52
56.84
47.04
36.11
24.46
13.28
4.40
-0.21
0.66
6.84
16.55
27.00
35.27
39.34
38.56
33.67
26.19
17.75
9.58
2.19
-4.41
-10.45
-16.22
-21.98
-28.27
-35.90
-45.71
-57.96
-71.64
-84.24
-92.29
-92.67
-83.93
-67.11
-45.34
-22.51
-1.82
15.27
29.03
40.57
50.87
60.03
67.32
71.55
71.74
67.55
59.37
48.25
35.66
23.30
12.99
6.33
4.38
7.40
14.62
24.40
34.62
43.31
49.10
51.38
50.13
45.62
38.26
28.54
17.27
5.60
-5.22
-14.18
-21.00
-26.11
-30.41
-34.91
-40.40
-47.26
-55.32
-63.87
-71.59
-76.70
-77.38
-72.41
-61.59
-45.88
-27.04
-6.98
12.75
31.15
47.57
61.36
71.67
77.56
78.40
74.28
66.28
56.24
46.29
38.20
32.93
30.47
30.05
30.62
31.34
31.92
32.60
33.87
36.04
38.91
41.62
42.80
40.95
34.95
24.41
9.93
-6.99
-24.31
-39.90
-51.83
-58.71
-59.81
-55.35
-46.72
-36.21
-26.57
-20.13
-17.83
-18.93
-21.34
-22.64
-21.17
-16.64
-10.01
-2.77
3.89
9.69
15.19
21.35
28.86
37.76
47.32
56.46
64.16
69.86
73.64
76.01
77.59
78.71
79.17
78.35
75.58
70.56
63.64
55.71
47.73
40.23
32.99
25.14
15.76
4.53
-7.81
-19.49
-28.38
-32.73
-31.85
-26.24
-17.26
-6.68
3.59
11.77
16.24
15.80
10.07
-0.17
-13.00
-25.81
-36.28
-43.23
-46.93
-48.66
-49.74
-50.57
-50.33
-47.47
-40.70
-29.93
-16.50
-2.69
9.30
18.23
24.05
27.64
29.98
31.62
32.45
31.95
29.58
25.12
18.84
11.34
3.42
-4.05
-10.23
-14.43
-16.26
-15.78
-13.48
-10.10
-6.32
-2.50
1.39
5.55
10.08
14.74
18.91
21.80
22.69
21.17
17.13
10.67
1.89
-9.08
-21.90
-35.77
-49.28
-60.51
-67.43
-68.41
-62.80
-51.17
-35.19
-17.14
0.69
16.57
29.62
39.70
47.11
52.20
55.15
55.92
54.40
50.60
44.78
37.33
28.65
19.10
9.10
-0.71
-9.30
-15.35
-17.66
-15.62
-9.68
-1.31
7.37
14.41
18.63
19.95
19.26
17.88
16.95
17.06
18.16
19.64
20.61
20.02
16.83
10.10
-0.65
-15.05
-31.55
-47.53
-59.88
-65.96
-64.46
-55.86
-42.17
-26.15
-10.43
3.27
14.26
22.70
29.10
33.92
37.33
39.28
39.65
38.50
36.02
32.48
28.13
23.08
17.46
11.62
6.15
1.86
-0.52
-0.69
1.05
3.91
6.84
8.92
9.56
8.53
5.94
2.04
-2.77
-8.00
-13.20
-17.98
-22.13
-25.58
-28.39
-30.71
-32.83
-35.07
-37.75
-40.93
-44.25
-46.97
-48.13
-46.99
-43.28
-37.38
-30.10
-22.38
-14.93
-8.04
-1.69
4.22
9.62
14.14
17.17
18.18
17.06
14.27
10.88
8.16
7.24
8.78
12.72
18.41
24.72
30.44
34.53
36.39
35.98
33.69
30.06
25.41
19.78
13.12
5.64
-1.90
-8.31
-12.47
-13.87
-12.79
-10.18
-7.03
-4.02
-1.52
0.19
0.53
-1.24
-5.62
-12.30
-20.03
-26.92
-31.24
-32.15
-29.89
-25.57
-20.58
-16.06
-12.57
-10.16
-8.57
-7.39
-6.24
-4.70
-2.27
1.53
6.99
14.01
22.04
30.17
37.29
42.50
45.28
45.60
43.83
40.55
36.37
31.88
27.52
23.47
19.56
15.24
9.84
3.03
-4.87
-12.79
-19.19
-22.68
-22.49
-18.66
-11.95
-3.51
5.32
13.05
18.00
18.53
13.62
3.46
-10.29
-24.88
-37.40
-45.86
-49.75
-49.96
-47.94
-44.81
-40.84
-35.55
-28.31
-19.03
-8.46
2.05
11.11
17.93
22.49
25.47
27.64
29.44
30.67
30.56
28.31
23.46
16.26
7.52
-1.58
-9.93
-16.70
-21.43
-24.04
-24.79
-24.14
-22.62
-20.60
-18.15
-15.02
-10.82
-5.35
1.14
7.86
13.59
17.06
17.30
13.83
6.70
-3.57
-16.06
-29.55
-42.53
-53.36
-60.53
-62.87
-59.90
-51.93
-40.05
-25.84
-11.00
3.08
15.53
25.98
34.31
40.44
44.24
45.54
44.33
40.93
36.03
30.52
25.12
20.20
15.69
11.29
6.84
2.58
-0.83
-2.70
-2.75
-1.55
-0.34
-0.56
-3.10
-7.67
-12.89
-16.81
-17.87
-15.50
-10.40
-4.16
1.39
4.72
4.91
1.70
-4.79
-14.00
-24.99
-36.25
-45.78
-51.48
-51.70
-45.91
-34.99
-21.03
-6.63
5.98
15.68
22.66
27.95
32.73
37.54
42.04
45.31
46.43
44.82
40.36
33.21
23.71
12.45
0.53
-10.33
-18.11
-21.06
-18.53
-11.30
-1.45
8.34
15.57
18.54
16.63
10.24
0.72
-9.93
-19.29
-25.19
-26.37
-22.95
-16.47
-9.39
-4.20
-2.69
-5.50
-12.02
-20.82
-30.01
-37.70
-42.30
-42.74
-38.74
-30.85
-20.32
-8.87
1.86
10.64
16.92
20.77
22.77
23.77
24.51
25.46
26.63
27.65
27.88
26.86
24.51
21.39
18.54
17.19
18.23
21.92
27.74
34.47
40.58
44.61
45.48
42.65
36.06
26.06
13.39
-0.77
-14.79
-26.72
-34.75
-37.87
-36.26
-31.39
-25.36
-20.18
-17.07
-16.21
-17.09
-19.00
-21.43
-24.19
-27.10
-29.74
-31.38
-31.25
-28.87
-24.34
-18.42
-12.20
-6.82
-2.99
-0.83
0.21
1.10
2.86
6.04
10.57
15.80
20.80
24.78
27.38
28.75
29.24
29.15
28.52
27.14
24.77
21.36
17.16
12.57
7.87
2.98
-2.53
-9.21
-17.19
-25.85
-33.69
-38.79
-39.48
-35.13
-26.58
-15.75
-5.03
3.57
8.84
10.40
8.44
3.30
-4.52
-14.25
-24.77
-34.68
-42.62
-47.71
-49.67
-48.60
-44.77
-38.25
-29.09
-17.52
-4.17
9.84
23.22
34.85
43.99
50.40
54.24
55.92
55.92
54.72
52.67
49.90
46.36
41.96
36.68
30.68
24.25
17.66
11.18
5.03
-0.57
-5.41
-9.43
-12.78
-15.70
-18.22
-19.99
-20.21
-18.09
-13.36
-6.65
0.60
6.64
9.95
9.69
5.59
-2.26
-13.50
-27.37
-42.47
-56.64
-67.29
-72.13
-69.92
-60.94
-46.89
-30.29
-13.76
0.71
12.06
20.13
25.47
28.78
30.64
31.27
30.63
28.62
25.33
21.10
16.51
12.11
8.23
5.01
2.45
0.59
-0.40
-0.35
0.75
2.62
4.65
6.00
5.84
3.55
-0.98
-7.19
-13.89
-19.50
-22.61
-22.48
-19.35
-14.36
-9.18
-5.39
-4.10
-5.72
-10.11
-16.68
-24.48
-32.21
-38.28
-41.12
-39.59
-33.47
-23.54
-11.45
0.82
11.45
19.30
24.08
26.24
26.76
26.74
26.92
27.57
28.38
28.76
28.29
26.99
25.42
24.53
25.12
27.54
31.54
36.45
41.43
45.74
48.80
50.11
49.19
45.52
38.77
29.03
17.01
4.04
-8.15
-17.96
-24.36
-27.25
-27.30
-25.64
-23.34
-21.25
-19.94
-19.91
-21.71
-25.77
-32.03
-39.62
-46.87
-51.78
-52.70
-49.08
-41.61
-31.92
-22.00
-13.55
-7.56
-4.17
-2.77
-2.22
-1.19
1.43
6.10
12.47
19.40
25.30
28.74
29.01
26.43
22.18
17.85
14.74
13.36
13.31
13.50
12.72
10.10
5.43
-0.88
-8.14
-15.57
-22.51
-28.30
-32.19
-33.35
-31.07
-25.19
-16.31
-5.73
4.81
13.52
18.87
19.81
15.86
7.14
-5.47
-20.32
-35.20
-47.86
-56.64
-60.86
-60.76
-57.09
-50.56
-41.58
-30.27
-16.81
-1.79
13.66
28.13
40.26
49.13
54.42
56.37
55.69
53.19
49.68
45.75
41.70
37.61
33.39
28.89
23.90
18.24
11.86
4.96
-1.94
-8.06
-12.68
-15.42
-16.38
-16.04
-14.95
-13.39
-11.31
-8.56
-5.12
-1.31
2.22
4.77
5.60
4.02
-0.72
-9.31
-21.96
-37.81
-54.75
-69.64
-79.27
-81.49
-76.02
-64.41
-49.40
-33.80
-19.58
-7.56
2.37
10.69
17.63
22.99
26.32
27.26
25.85
22.54
17.99
12.80
7.39
1.95
-3.33
-7.99
-11.26
-12.19
-10.07
-4.79
2.94
11.58
19.15
23.69
23.88
19.50
11.65
2.49
-5.44
-10.15
-10.92
-8.52
-4.82
-2.06
-2.11
-5.97
-13.75
-24.75
-37.62
-50.41
-60.76
-66.39
-65.75
-58.63
-46.40
-31.45
-16.44
-3.35
7.02
14.90
21.01
25.98
29.98
32.72
33.84
33.18
30.97
27.78
24.36
21.42
19.63
19.55
21.61
26.04
32.60
40.55
48.63
55.38
59.50
60.13
56.88
49.74
39.04
25.49
10.48
-4.02
-15.73
-22.86
-24.86
-22.61
-18.05
-13.24
-9.60
-7.69
-7.50
-9.03
-12.48
-17.97
-25.01
-32.27
-37.83
-40.08
-38.42
-33.56
-27.09
-20.69
-15.34
-11.14
-7.48
-3.60
0.94
6.05
11.17
15.58
18.79
20.68
21.56
22.05
22.82
24.29
26.48
28.99
31.17
32.37
32.14
30.36
27.14
22.61
16.76
9.36
0.18
-10.61
-22.12
-32.67
-40.22
-43.06
-40.61
-33.62
-23.88
-13.55
-4.44
2.19
5.65
5.50
1.45
-6.35
-16.94
-28.50
-38.67
-45.36
-47.52
-45.34
-39.87
-32.28
-23.16
-12.38
0.45
15.36
31.49
47.14
60.36
69.63
74.39
75.11
72.86
68.78
63.74
58.25
52.48
46.52
40.36
33.89
26.91
19.31
11.15
2.86
-4.86
-11.35
-16.30
-19.80
-22.25
-23.97
-24.92
-24.76
-23.09
-19.77
-15.10
-9.65
-4.11
0.74
3.86
3.91
-0.48
-10.04
-24.09
-40.29
-55.22
-65.51
-69.11
-65.85
-57.15
-45.09
-31.44
-17.23
-2.88
11.15
24.09
34.73
41.94
45.08
44.33
40.55
35.01
28.89
23.02
17.67
12.56
7.12
0.87
-6.10
-12.93
-18.09
-19.97
-17.57
-11.11
-2.12
7.05
14.11
17.69
17.82
15.67
13.04
11.53
12.03
14.56
18.41
22.43
25.26
25.50
21.90
13.77
1.46
-13.26
-27.39
-37.42
-40.60
-36.01
-24.91
-10.23
4.71
17.42
27.01
33.90
39.11
43.37
46.75
48.91
49.57
48.84
47.12
44.78
41.88
38.06
33.00
26.74
19.98
13.85
9.50
7.53
7.79
9.35
10.85
10.92
8.50
3.10
-5.00
-14.70
-24.26
-31.70
-35.46
-34.96
-30.86
-24.79
-18.81
-14.65
-13.31
-14.93
-19.06
-24.91
-31.43
-37.39
-41.43
-42.37
-39.61
-33.48
-25.17
-16.36
-8.55
-2.49
1.97
5.57
9.12
13.00
16.94
20.21
22.06
22.14
20.62
18.07
15.14
12.46
10.49
9.60
10.05
11.90
14.69
17.44
18.85
17.78
13.85
7.56
0.11
-7.30
-14.02
-20.12
-25.99
-31.90
-37.48
-41.84
-43.99
-43.24
-39.59
-33.64
-26.57
-19.75
-14.60
-12.32
-13.55
-17.96
-24.20
