1540452139.00
64.000000
-0.00
-0.00
-0.00
-0.00
-0.00
-0.00
-0.00
-0.00
-0.00
-0.00
0.00
0.01
0.01
-0.00
-0.03
-0.05
-0.05
0.00
0.13
0.36
0.66
1.01
1.37
1.72
2.06
2.40
2.79
3.24
3.80
4.42
5.06
5.66
6.20
6.68
7.15
7.68
8.31
9.14
10.09
11.04
11.88
12.56
13.14
13.76
14.65
15.96
17.91
20.32
22.90
25.38
27.58
29.57
31.68
34.32
37.81
42.54
48.15
54.10
59.83
64.97
69.58
74.14
79.34
85.71
93.76
103.00
112.62
121.73
129.77
136.75
143.30
150.75
157.77
166.64
177.95
191.79
206.97
220.57
228.25
225.36
208.53
176.87
132.76
80.05
23.07
-34.94
-92.44
-149.16
-205.23
-260.37
-313.74
-363.87
-409.83
-450.91
-486.50
-515.74
-537.23
-549.22
-549.96
-538.37
-514.21
-478.67
-433.88
-382.45
-327.02
-269.84
-212.63
-156.66
-102.95
-52.37
-5.90
35.58
71.43
101.35
125.50
144.38
158.69
169.15
176.37
180.75
182.57
182.07
179.51
175.23
169.65
163.18
156.15
148.81
141.30
133.69
126.02
118.33
110.69
103.16
95.80
88.68
81.83
75.25
68.95
62.95
57.25
51.86
46.78
42.03
37.59
33.45
29.61
26.07
22.81
19.83
17.11
14.67
12.48
10.54
8.83
7.35
6.07
4.97
4.05
3.27
2.62
2.09
1.65
1.30
1.01
0.79
0.61
0.48
0.37
0.29
0.24
0.20
0.18
0.17
0.17
0.19
0.21
0.24
0.27
0.31
0.35
0.39
0.43
0.48
0.53
0.58
0.63
0.68
0.74
0.81
0.88
0.95
1.03
1.12
1.23
1.34
1.47
1.61
1.77
1.94
2.14
2.36
2.61
2.88
3.17
3.50
3.86
4.25
4.68
5.14
5.64
6.18
6.76
7.38
8.04
8.75
9.50
10.30
11.15
12.03
12.97
13.95
15.00
16.11
17.28
18.51
19.79
21.06
22.30
23.41
24.30
24.84
24.92
24.43
23.26
21.39
18.78
15.53
11.68
7.42
2.93
-1.57
-5.88
-9.80
-13.16
-15.87
-17.87
-19.14
-19.70
-19.64
-19.05
-18.03
-16.69
-15.14
-13.48
-11.77
-10.02
-8.23
-6.40
-4.51
-2.58
-0.60
1.40
3.39
5.34
7.28
9.31
11.37
13.51
15.73
18.05
20.43
22.83
25.21
27.66
30.35
33.21
36.27
39.58
43.08
46.63
50.05
53.23
56.24
59.43
62.74
66.34
70.32
74.56
78.73
82.39
85.19
87.12
88.59
89.63
90.49
91.26
91.53
90.36
86.41
78.06
63.48
45.77
26.30
6.28
-13.47
-32.69
-51.63
-70.96
-91.54
-114.25
-139.59
-167.94
-198.07
-227.06
-250.78
-265.11
-267.45
-257.74
-238.62
-214.27
-189.47
-167.43
-149.25
-134.30
-121.11
-108.27
-94.82
-80.29
-64.46
-47.53
-29.80
-11.88
5.25
20.34
32.16
39.88
43.45
43.61
41.59
38.80
36.42
34.94
34.16
33.43
32.10
29.86
26.97
23.96
21.50
19.99
19.41
19.35
19.22
18.42
16.51
13.30
8.89
3.76
-1.27
-5.12
-6.69
-5.24
-0.62
6.59
15.31
24.26
32.28
38.60
42.83
44.92
45.01
43.37
40.34
36.35
31.88
27.38
23.18
19.42
16.04
12.89
9.89
7.10
4.73
2.97
1.83
1.10
0.34
-0.92
-3.05
-6.24
-10.38
-15.11
-19.76
-23.45
-25.18
-24.10
-19.80
-12.54
-3.22
6.81
16.14
23.72
28.95
31.80
32.57
31.75
29.80
27.14
24.00
20.55
16.93
13.27
9.71
6.37
3.37
0.74
-1.54
-3.51
-5.26
-6.83
-8.36
-10.07
-12.23
-15.12
-18.78
-22.86
-26.56
-28.81
-28.54
-25.11
-18.56
-9.65
0.36
10.13
18.53
24.91
29.05
31.08
31.25
29.93
27.44
24.14
20.38
16.51
12.80
9.41
6.34
3.55
0.98
-1.36
-3.38
-4.97
-6.17
-7.20
-8.48
-10.51
-13.66
-17.91
-22.73
-27.14
-29.94
-30.09
-27.07
-21.01
-12.76
-3.53
5.42
13.12
19.02
22.95
24.95
25.15
23.74
20.95
17.12
12.71
8.14
3.76
-0.22
-3.71
-6.67
-9.10
-10.98
-12.37
-13.41
-14.40
-15.65
-17.50
-20.11
-23.41
-27.00
-30.18
-31.99
-31.48
-27.96
-21.34
-12.23
-1.81
8.43
17.19
23.61
27.45
28.92
28.48
26.59
23.63
19.93
15.79
11.55
7.56
4.06
1.17
-1.12
-2.89
-4.21
-5.11
-5.59
-5.74
-5.82
-6.30
-7.75
-10.60
-14.76
-19.55
-23.68
-25.71
-24.50
-19.68
-11.78
-2.05
8.02
17.08
24.25
29.19
31.92
32.68
31.72
29.32
25.80
21.56
17.08
12.84
9.17
6.21
3.90
2.07
0.54
-0.78
-1.93
-2.87
-3.66
-4.48
-5.63
-7.54
-10.56
-14.68
-19.42
-23.76
-26.43
-26.27
-22.73
-16.09
-7.33
2.20
11.29
19.11
25.27
29.62
32.09
32.61
31.20
28.12
23.90
19.26
14.93
11.41
8.88
7.18
5.98
4.88
3.63
2.16
0.57
-0.96
-2.33
-3.56
-4.83
-6.46
-8.82
-12.20
-16.63
-21.81
-26.97
-31.01
-32.73
-31.26
-26.28
-18.27
-8.33
2.16
11.89
19.92
25.81
29.50
31.20
31.19
29.75
27.17
23.80
20.04
16.34
13.14
10.72
9.12
8.17
7.51
6.81
5.84
4.53
2.90
1.08
-0.84
-2.76
-4.65
-6.52
-8.50
-10.82
-13.78
-17.60
-22.39
-27.88
-33.46
-38.18
-40.93
-40.73
-37.00
-29.75
-19.70
-8.05
3.75
14.40
22.96
29.01
32.57
33.92
33.51
31.77
29.19
26.18
23.15
20.43
18.22
16.53
15.23
14.11
13.04
12.06
11.31
10.91
10.83
10.81
10.42
9.27
7.21
4.39
1.23
-1.83
-4.52
-6.81
-8.93
-11.26
-14.13
-17.80
-22.30
-27.33
-32.20
-35.88
-37.22
-35.32
-29.88
-21.40
-11.07
-0.36
9.37
17.25
22.93
26.46
28.07
27.98
26.41
23.64
19.98
15.84
11.57
7.47
3.70
0.35
-2.45
-4.57
-5.86
-6.24
-5.77
-4.67
-3.28
-1.99
-1.15
-0.99
-1.60
-2.91
-4.73
-6.79
-8.88
-10.94
-13.17
-15.93
-19.55
-24.09
-29.10
-33.61
-36.39
-36.37
-33.05
-26.66
-18.09
-8.58
0.71
8.94
15.62
20.52
23.54
24.67
24.02
21.89
18.76
15.25
11.93
9.25
7.39
6.27
5.67
5.30
4.88
4.26
3.43
2.44
1.37
0.31
-0.78
-1.97
-3.36
-5.14
-7.44
-10.38
-14.00
-18.13
-22.33
-25.92
-28.08
-28.13
-25.76
-21.14
-14.87
-7.80
-0.80
5.42
10.36
13.73
15.37
15.27
13.58
10.60
6.77
2.60
-1.45
-5.00
-7.81
-9.80
-11.08
-11.84
-12.32
-12.70
-12.99
-13.15
-13.10
-12.90
-12.78
-13.13
-14.37
-16.76
-20.30
-24.63
-29.08
-32.72
-34.61
-33.93
-30.24
-23.63
-14.77
-4.72
5.25
14.04
20.89
25.41
27.59
27.68
26.08
23.36
20.13
16.99
14.44
12.72
11.77
11.29
10.85
10.12
9.03
7.78
6.73
6.08
5.79
5.40
4.27
1.77
-2.42
-8.13
-14.69
-21.06
-26.02
-28.40
-27.44
-22.95
-15.44
-6.05
3.77
12.62
19.55
24.13
26.45
26.84
25.69
23.32
20.00
16.08
11.97
8.11
4.86
2.38
0.59
-0.73
-1.87
-3.03
-4.24
-5.43
-6.46
-7.25
-7.88
-8.65
-9.96
-12.23
-15.68
-20.03
-24.56
-28.11
-29.48
-27.83
-23.02
-15.71
-7.14
1.23
8.26
13.32
16.39
17.86
18.29
18.26
18.21
18.42
18.95
19.53
19.65
18.61
15.88
11.29
5.25
-1.31
-7.27
-11.68
-14.09
-14.63
-13.85
-12.53
-11.41
-11.03
-11.62
-13.11
-15.06
-16.84
-17.66
-16.91
-14.23
-9.70
-3.75
2.97
9.74
15.97
21.19
25.11
27.56
28.47
27.84
25.79
22.59
18.63
14.47
10.66
7.70
5.78
4.74
4.08
3.15
1.46
-1.10
-4.11
-6.77
-8.16
-7.62
-5.10
-1.23
2.83
5.73
6.41
4.41
0.00
-5.80
-11.52
-15.51
-16.39
-13.30
-6.21
3.99
15.65
26.70
35.17
39.67
39.70
35.67
28.65
20.05
11.27
3.51
-2.41
-5.97
-7.02
-5.86
-3.12
0.26
3.25
4.91
4.73
2.60
-1.08
-5.65
-10.24
-13.97
-16.03
-15.74
-12.78
-7.36
-0.29
7.17
13.63
18.16
20.61
21.61
22.18
23.20
24.91
26.87
28.23
28.24
26.56
23.33
18.92
13.67
7.75
1.23
-5.64
-12.25
-17.64
-20.84
-21.25
-19.00
-14.94
-10.45
-6.93
-5.36
-6.05
-8.70
-12.67
-17.20
-21.65
-25.45
-28.08
-29.00
-27.68
-23.84
-17.57
-9.36
-0.09
9.27
17.84
25.01
30.40
33.87
35.34
34.87
32.67
29.14
24.95
20.84
17.51
15.37
14.45
14.39
14.58
14.41
13.44
11.51
8.72
5.39
1.88
-1.47
-4.46
-7.10
-9.61
-12.29
-15.39
-18.91
-22.43
-25.16
-26.18
-24.74
-20.57
-14.02
-5.95
2.55
10.45
16.97
21.68
24.43
25.23
24.27
21.88
18.59
15.00
11.76
9.28
7.68
6.78
6.15
5.36
4.07
2.18
-0.21
-2.83
-5.29
-7.21
-8.27
-8.34
-7.53
-6.23
-5.01
-4.45
-4.99
-6.84
-9.85
-13.59
-17.37
-20.31
-21.52
-20.27
-16.20
-9.53
-1.02
8.17
16.76
23.68
28.31
30.57
30.80
29.55
27.35
24.57
21.42
18.04
14.64
11.50
8.95
7.17
6.12
5.48
4.74
3.43
1.22
-1.89
-5.66
-9.68
-13.50
-16.78
-19.33
-21.14
-22.34
-23.18
-24.03
-25.25
-27.16
-29.87
-33.16
-36.42
-38.79
-39.36
-37.54
-33.29
-27.20
-20.22
-13.36
-7.25
-2.05
2.48
6.67
10.63
14.15
16.79
18.16
18.21
17.20
15.70
14.31
13.44
13.26
13.75
14.80
16.30
18.17
20.26
22.34
24.12
25.31
25.64
24.95
23.16
20.21
16.07
10.79
4.45
-2.71
-10.27
-17.63
-23.95
-28.34
-29.96
-28.34
-23.56
-16.40
-8.14
-0.26
6.07
10.24
12.31
12.77
12.17
10.92
9.13
6.69
3.53
-0.35
-4.70
-9.11
-13.03
-15.88
-17.11
-16.38
-13.60
-9.04
-3.34
2.62
7.87
11.62
13.36
13.12
11.32
8.72
6.11
4.12
3.04
2.73
2.68
2.25
0.91
-1.47
-4.52
-7.41
-9.15
-8.92
-6.45
-2.06
3.39
8.81
13.20
15.78
16.09
14.02
9.86
4.34
-1.47
-6.46
-9.79
-11.32
-11.69
-12.02
-13.44
-16.56
-21.29
-26.82
-32.10
-36.11
-38.18
-38.04
-35.84
-32.11
-27.63
-23.47
-20.65
-19.96
-21.67
-25.35
-30.00
-34.22
-36.66
-36.30
-32.77
-26.35
-17.91
-8.60
0.47
8.47
15.04
20.16
24.03
26.76
28.28
28.36
26.81
23.67
19.37
14.73
10.77
8.46
8.40
10.56
14.23
18.13
20.78
20.91
17.94
12.19
4.80
-2.62
-8.59
-12.21
-13.49
-13.23
-12.64
-12.86
-14.45
-17.32
-20.72
-23.63
-25.06
-24.35
-21.31
-16.16
-9.47
-1.98
5.50
12.22
17.55
21.03
22.45
21.88
19.67
16.40
12.73
9.25
6.37
4.19
2.56
1.18
-0.19
-1.62
-2.89
-3.65
-3.59
-2.60
-0.99
0.61
1.40
0.67
-1.95
-6.38
-12.10
-18.33
-24.24
-29.08
-32.31
-33.62
-32.97
-30.55
-26.78
-22.21
-17.38
-12.73
-8.48
-4.67
-1.24
1.84
4.50
6.58
7.91
8.35
7.89
6.65
4.83
2.70
0.52
-1.48
-3.17
-4.48
-5.34
-5.71
-5.46
-4.51
-2.88
-0.73
1.58
3.58
4.79
4.82
3.44
0.62
-3.46
-8.44
-13.72
-18.53
-22.04
-23.45
-22.21
-18.20
-11.77
-3.72
4.82
12.70
19.02
23.34
25.75
26.80
27.21
27.58
28.12
28.61
28.53
27.31
24.63
20.55
15.52
10.16
5.13
0.92
-2.12
-3.78
-3.99
-2.91
-1.09
0.55
0.86
-1.11
-5.71
-12.49
-20.33
-27.92
-34.25
-38.90
-41.96
-43.69
-44.14
-43.08
-40.13
-35.14
-28.36
-20.55
-12.63
-5.38
0.78
5.75
9.59
12.21
13.37
12.77
10.32
6.28
1.34
-3.61
-7.73
-10.45
-11.60
-11.35
-10.10
-8.34
-6.53
-5.04
-4.08
-3.70
-3.82
-4.33
-5.16
-6.38
-8.18
-10.87
-14.69
-19.73
-25.78
-32.26
-38.22
-42.49
-43.94
-41.74
-35.68
-26.23
-14.42
-1.56
11.17
22.96
33.46
42.67
50.62
57.15
61.81
63.95
63.00
58.81
51.89
43.34
34.64
27.16
21.81
18.78
17.73
17.98
18.82
19.67
20.08
19.69
18.17
15.36
11.34
6.49
1.47
-3.12
-6.86
-9.83
-12.45
-15.25
-18.51
-21.96
-24.75
-25.68
-23.70
-18.33
-9.87
0.62
11.66
21.80
29.97
35.66
38.84
39.85
39.17
37.23
34.33
30.63
26.21
21.13
15.62
10.06
4.98
0.96
-1.57
-2.44
-1.88
-0.48
0.95
1.58
0.78
-1.65
-5.43
-9.89
-14.15
-17.44
-19.27
-19.64
-19.06
-18.41
-18.73
-20.86
-25.14
-31.15
-37.66
-42.94
-45.16
-43.05
-36.30
-25.69
-12.83
0.35
12.18
21.62
28.33
32.52
34.60
34.99
33.96
31.70
28.47
24.58
20.53
16.91
14.35
13.39
14.36
17.25
21.67
26.83
31.68
35.14
36.45
35.32
32.01
27.16
21.55
15.78
10.20
4.89
-0.20
-5.16
-10.11
-15.17
-20.45
-25.93
-31.24
-35.67
-38.24
-38.02
-34.55
-28.03
-19.37
-9.82
-0.63
7.32
13.65
18.35
21.56
23.36
23.72
22.60
20.11
16.60
12.61
8.78
5.73
3.85
3.23
3.71
4.80
5.91
6.46
6.02
4.47
2.01
-0.86
-3.55
-5.53
-6.48
-6.42
-5.64
-4.69
-4.14
-4.55
-6.16
-8.91
-12.31
-15.56
-17.74
-17.98
-15.74
-10.91
-3.88
4.53
13.25
21.16
27.36
31.32
32.93
32.41
30.28
27.09
23.34
19.46
15.87
13.03
11.30
10.79
11.18
11.73
11.50
9.80
6.60
2.61
-1.01
-3.12
-3.17
-1.33
1.53
4.32
6.09
6.22
4.47
0.86
-4.38
-10.71
-17.21
-22.61
-25.43
-24.41
-18.95
-9.44
2.75
15.61
27.01
35.27
39.57
40.00
37.32
32.62
26.92
20.99
15.38
10.45
6.46
3.57
1.66
0.32
-1.06
-3.04
-5.86
-9.27
-12.62
-15.15
-16.43
-16.50
-15.90
-15.38
-15.53
-16.59
-18.45
-20.85
-23.60
-26.67
-30.06
-33.61
-36.82
-38.90
-38.94
-36.31
-30.92
-23.33
-14.62
-5.99
1.61
7.72
12.32
15.68
18.09
19.67
20.45
20.51
20.05
19.41
18.86
18.46
17.94
16.85
14.79
11.74
8.07
4.42
1.44
-0.55
-1.58
-1.99
-2.17
-2.47
-3.08
-4.09
-5.63
-7.87
-10.91
-14.64
-18.58
-21.88
-23.56
-22.79
-19.23
-13.22
-5.69
2.15
9.17
14.64
18.26
20.07
20.22
18.85
16.09
12.22
7.77
3.42
-0.15
-2.63
-4.21
-5.41
-6.81
-8.70
-10.87
-12.79
-13.90
-13.98
-13.25
-12.26
-11.59
-11.61
-12.39
-13.83
-15.76
-18.15
-20.97
-24.06
-26.94
-28.93
-29.24
-27.27
-22.91
-16.57
-9.08
-1.45
5.47
11.22
15.70
19.08
21.50
23.04
23.65
23.40
22.55
21.52
20.80
20.58
20.71
20.67
19.90
18.08
15.30
12.01
8.85
6.35
4.81
4.21
4.35
4.85
5.19
4.80
3.08
-0.36
-5.57
-12.04
-18.78
-24.42
-27.60
-27.36
-23.43
-16.36
-7.38
1.93
10.08
16.03
19.36
20.29
19.33
17.12
14.18
10.87
7.44
4.12
1.05
-1.71
-4.26
-6.84
-9.60
-12.47
-15.10
-16.97
-17.67
-17.17
-15.85
-14.44
-13.64
-13.90
-15.24
-17.35
-19.72
-21.86
-23.34
-23.85
-23.14
-21.10
-17.76
-13.32
-8.18
-2.84
2.27
6.80
10.62
13.76
16.30
18.31
19.72
20.42
20.27
19.30
17.75
16.00
14.38
13.01
11.73
10.22
8.31
6.10
4.03
2.58
2.00
2.13
2.43
2.33
1.48
-0.08
-1.92
-3.47
-4.16
-3.64
-1.75
1.42
5.51
9.90
13.79
16.41
17.30
16.48
14.46
12.01
9.83
8.28
7.30
6.54
5.58
4.19
2.36
0.25
-1.90
-3.87
-5.52
-6.79
-7.75
-8.54
-9.42
-10.67
-12.50
-14.97
-17.96
-21.19
-24.32
-27.01
-28.97
-29.87
-29.45
-27.49
-23.90
-18.83
-12.64
-5.90
0.70
6.53
11.08
14.07
15.51
15.61
14.71
13.15
11.20
9.08
6.97
5.14
3.85
3.33
3.57
4.44
5.67
7.10
8.77
10.87
13.45
16.16
18.21
18.63
16.74
12.56
6.84
0.81
-4.35
-7.87
-9.52
-9.44
-7.87
-4.98
-0.91
4.11
9.57
14.71
18.64
20.63
20.31
17.84
13.93
9.52
5.60
2.85
1.43
1.08
1.22
1.29
0.92
0.01
-1.36
-3.06
-4.98
-7.06
-9.18
-11.23
-13.01
-14.42
-15.55
-16.69
-18.30
-20.81
-24.31
-28.42
-32.26
-34.71
-34.78
-32.01
-26.65
-19.58
-11.99
-4.97
0.74
4.87
7.51
8.92
9.33
8.90
7.68
5.79
3.44
0.96
-1.30
-3.08
-4.37
-5.29
-6.01
-6.58
-6.88
-6.62
-5.58
-3.67
-1.01
2.14
5.41
8.30
10.22
10.53
8.79
5.03
-0.03
-5.11
-8.67
-9.55
-7.31
-2.39
4.16
11.14
17.56
22.78
26.47
28.46
28.64
26.99
23.73
19.36
14.68
10.52
7.47
5.68
4.80
4.18
3.16
1.39
-1.09
-3.96
-6.83
-9.45
-11.77
-13.80
-15.58
-17.12
-18.58
-20.27
-22.62
-25.93
-29.96
-33.84
-36.24
-35.83
-31.88
-24.70
-15.47
-5.91
2.45
8.71
12.74
14.97
15.98
16.19
15.73
14.58
12.76
10.47
8.03
5.74
3.73
1.82
-0.27
-2.78
-5.65
-8.44
-10.58
-11.47
-10.87
-8.89
-5.88
-2.34
1.27
4.45
6.57
6.96
5.10
1.12
-3.95
-8.34
-10.10
-7.97
-1.96
6.62
15.78
23.70
29.36
32.69
34.15
34.21
33.01
30.38
26.24
20.86
14.93
9.41
5.06
2.20
0.54
-0.57
-1.84
-3.64
-5.85
-7.95
-9.36
-9.83
-9.61
-9.40
-10.00
-11.95
-15.29
-19.58
-24.08
-28.02
-30.73
-31.75
-30.72
-27.49
-22.16
-15.14
-7.18
0.85
8.11
14.04
18.34
20.97
22.00
21.58
19.82
16.94
13.22
9.02
4.79
0.89
-2.40
-5.00
-6.92
-8.28
-9.13
-9.48
-9.37
-8.88
-8.22
-7.72
-7.65
-8.12
-8.97
-9.84
-10.34
-10.22
-9.34
-7.66
-5.08
-1.42
3.50
9.70
16.88
24.42
31.43
37.08
40.72
41.99
40.79
37.20
31.46
24.01
15.58
7.22
0.08
-4.87
-7.21
-7.24
-5.90
-4.38
-3.69
-4.26
-6.00
-8.45
-11.24
-14.21
-17.41
-20.82
-24.09
-26.52
-27.36
-26.18
-23.12
-18.92
-14.57
-10.89
-8.26
-6.54
-5.34
-4.23
-2.91
-1.27
0.72
2.99
5.41
7.69
9.43
10.32
10.28
9.54
8.53
7.65
6.99
6.35
5.29
3.53
1.12
-1.52
-3.79
-5.26
-5.89
-6.04
-6.25
-6.93
-8.16
-9.55
-10.46
-10.21
-8.37
-4.83
0.13
6.03
12.24
18.13
23.05
26.36
27.48
26.15
22.51
17.28
11.58
6.64
3.36
2.08
2.41
3.51
4.34
4.07
2.33
-0.80
-4.85
-9.11
-12.92
-15.85
-17.80
-19.01
-19.89
-20.86
-22.11
-23.49
-24.61
-24.94
-24.11
-21.97
-18.72
-14.75
-10.50
-6.42
-2.81
0.10
2.21
3.55
4.30
4.78
5.32
6.05
6.77
6.98
6.12
3.85
0.38
-3.64
-7.33
-9.99
-11.37
-11.71
-11.49
-11.17
-11.02
-11.11
-11.44
-12.08
-13.04
-14.17
-14.99
-14.78
-12.83
-8.74
-2.70
4.56
11.96
18.46
23.32
26.35
27.77
28.13
27.97
27.65
27.30
26.85
26.17
25.13
23.67
21.80
19.55
16.99
14.30
11.74
9.67
8.33
7.77
7.78
7.98
8.04
7.75
7.04
5.95
4.48
2.69
0.70
-1.19
-2.56
-2.95
-2.14
-0.14
2.72
5.97
9.10
11.66
13.33
13.93
13.43
11.96
9.77
7.09
4.13
0.96
-2.35
-5.67
-8.85
-11.72
-14.19
-16.29
-18.15
-19.83
-21.27
-22.26
-22.58
-22.14
-21.07
-19.73
-18.45
-17.44
-16.57
-15.55
-13.95
-11.49
-8.15
-4.17
0.10
4.26
8.04
11.32
14.06
16.26
17.86
18.82
19.07
18.63
17.58
16.05
14.18
12.09
9.89
7.70
5.65
3.89
2.56
1.70
1.24
0.96
0.55
-0.29
-1.67
-3.52
-5.51
-7.21
-8.25
-8.41
-7.70
-6.31
-4.52
-2.57
-0.61
1.28
3.10
4.82
6.45
7.91
9.05
9.74
9.83
9.27
8.11
6.54
4.73
2.87
1.01
-0.81
-2.57
-4.17
-5.51
-6.51
-7.16
-7.52
-7.64
-7.50
-7.05
-6.31
-5.49
-4.98
-5.22
-6.42
-8.33
-10.32
-11.60
-11.64
-10.44
-8.59
-6.93
-6.13
-6.34
-7.16
-7.91
-8.08
-7.53
-6.54
-5.50
-4.62
-3.75
-2.44
-0.43
2.20
4.85
6.67
6.96
5.68
3.47
1.53
1.06
2.71
6.32
10.90
15.03
17.25
16.55
12.53
5.63
-2.96
-11.45
-17.86
-20.68
-19.42
-14.90
-8.95
-3.63
-0.17
1.50
2.68
5.08
9.66
16.07
22.60
27.05
27.70
24.08
17.11
8.62
0.65
-5.26
-8.44
-9.05
-7.80
-5.63
-3.43
-1.92
-1.63
-2.88
-5.73
-9.91
-14.75
-19.37
-22.82
-24.48
-24.21
-22.45
-19.97
-17.61
-15.92
-14.94
-14.27
-13.25
-11.35
-8.36
-4.55
-0.50
3.12
5.81
7.35
7.79
7.32
6.05
3.97
0.99
-2.81
-7.08
-11.14
-14.24
-15.83
-15.87
-14.91
-13.86
-13.56
-14.34
-15.88
-17.36
-17.81
-16.50
-13.07
-7.50
-0.01
8.95
18.60
27.72
34.86
38.67
38.47
34.59
28.33
21.45
15.47
11.07
7.95
5.19
1.85
-2.47
-7.34
-11.82
-14.94
-16.34
-16.50
-16.51
-17.57
-20.35
-24.73
-29.83
-34.46
-37.58
-38.57
-37.21
-33.50
-27.50
-19.22
-8.87
3.01
15.52
27.43
37.46
44.47
47.69
46.70
41.59
32.88
21.61
9.23
-2.60
-12.36
-19.06
-22.36
-22.61
-20.57
-17.18
-13.28
-9.58
-6.65
-4.85
-4.36
-5.08
-6.61
-8.30
-9.40
-9.12
-6.86
-2.33
4.39
12.82
22.18
31.56
40.16
47.42
53.12
57.23
59.67
60.14
57.94
52.16
42.04
27.47
9.49
-9.68
-27.06
-39.88
-46.52
-47.14
-43.51
-38.21
-33.54
-30.81
-30.21
-31.24
-33.31
-36.11
-39.55
-43.41
-47.03
-49.33
-49.12
-45.63
-38.83
-29.47
-18.86
-8.42
0.62
7.49
11.93
14.12
14.55
13.84
12.58
11.22
10.00
8.99
8.09
7.19
6.18
4.97
3.56
2.00
0.43
-0.94
-1.88
-2.28
-2.24
-2.10
-2.27
-3.04
-4.36
-5.70
-6.19
-4.85
-1.00
5.47
13.91
23.10
31.59
38.13
42.07
43.45
42.93
41.49
40.01
39.01
38.43
37.63
35.61
31.32
24.08
13.96
1.95
-10.22
-20.60
-27.66
-30.79
-30.44
-27.92
-24.78
-22.34
-21.29
-21.67
-22.97
-24.41
-25.16
-24.53
-22.12
-17.90
-12.19
-5.57
1.25
7.56
12.82
16.70
19.07
20.06
20.02
19.35
18.46
17.53
16.51
15.13
13.03
10.00
6.04
1.52
-3.01
-6.98
-9.93
-11.70
-12.34
-12.13
-11.36
-10.18
-8.56
-6.27
-3.03
1.35
6.89
13.29
20.04
26.41
31.68
35.25
36.86
36.69
35.32
33.56
32.17
31.61
31.93
32.80
33.71
34.16
33.76
32.18
29.09
24.13
17.03
7.89
-2.57
-13.04
-21.96
-28.06
-30.83
-30.76
-29.02
-26.94
-25.35
-24.41
-23.61
-22.21
-19.70
-16.07
-11.80
-7.64
-4.28
-2.06
-0.86
-0.22
0.45
1.53
3.06
4.73
6.13
6.99
7.29
7.24
7.08
6.78
6.06
4.52
1.91
-1.68
-5.80
-9.85
-13.35
-16.15
-18.30
-19.92
-20.94
-21.02
-19.69
-16.64
-11.96
-6.12
0.12
6.01
11.00
14.81
17.33
18.61
18.82
18.29
17.53
17.09
17.36
18.32
19.54
20.30
19.90
18.01
14.80
10.86
7.02
3.88
1.66
0.02
-1.68
-4.07
-7.32
-11.04
-14.36
-16.33
-16.40
-14.57
-11.42
-7.74
-4.18
-1.12
1.38
3.34
4.70
5.21
4.63
2.81
-0.08
-3.53
-6.84
-9.26
-10.36
-10.11
-8.90
-7.38
-6.20
-5.69
-5.79
-6.09
-6.14
-5.68
-4.79
-3.89
-3.51
-4.05
-5.62
-8.03
-10.85
-13.53
-15.45
-16.02
-14.75
-11.42
-6.26
0.06
6.53
12.03
15.78
17.50
17.41
15.97
13.61
10.56
6.99
3.13
-0.47
-3.06
-4.02
-3.04
-0.45
2.95
6.16
8.34
9.06
8.35
6.49
3.89
0.90
-2.18
-5.00
-7.12
-8.05
-7.36
-4.90
-0.94
3.78
8.25
11.49
12.93
12.51
10.67
8.00
5.08
2.19
-0.61
-3.40
-6.20
-8.93
-11.42
-13.52
-15.11
-16.12
-16.49
-16.11
-14.93
-13.01
-10.66
-8.32
-6.55
-5.74
-6.00
-7.15
-8.73
-10.14
-10.90
-10.68
-9.41
-7.20
-4.32
-1.10
2.10
4.95
7.18
8.65
9.37
9.42
9.01
8.33
7.59
6.90
6.30
5.70
4.96
4.00
2.87
1.75
0.89
0.48
0.58
1.02
1.48
1.59
1.11
0.01
-1.44
-2.79
-3.58
-3.50
-2.51
-0.81
1.31
3.50
5.51
7.19
8.43
9.13
9.18
8.54
7.25
5.47
3.36
1.07
-1.30
-3.73
-6.21
-8.69
-11.04
-13.10
-14.60
-15.39
-15.39
-14.73
-13.75
-12.81
-12.21
-12.01
-11.99
-11.75
-10.91
-9.27
-6.90
-4.13
-1.38
0.98
2.72
3.82
4.36
4.47
4.28
3.88
3.37
2.91
2.68
2.81
3.29
4.01
4.77
5.40
5.89
6.28
6.61
6.83
6.77
6.24
5.21
3.81
2.31
0.93
-0.23
-1.23
-2.15
-3.02
-3.72
-4.04
-3.86
-3.18
-2.18
-1.10
-0.15
0.54
0.98
1.26
1.49
1.80
2.23
2.69
2.99
2.93
2.38
1.32
-0.08
-1.63
-3.18
-4.66
-6.14
-7.71
-9.41
-11.20
-12.96
-14.54
-15.81
-16.69
-17.07
-16.80
-15.69
-13.57
-10.41
-6.42
-2.02
2.27
5.93
8.64
10.31
11.02
10.97
10.35
9.35
8.14
6.90
5.81
4.99
4.49
4.29
4.30
4.43
4.61
4.80
4.98
5.17
5.36
5.50
5.47
5.03
3.93
2.01
-0.60
-3.43
-5.76
-6.83
-6.17
-3.83
-0.33
3.51
6.88
9.28
10.58
10.93
10.52
9.48
7.85
5.62
2.96
0.18
-2.26
-4.03
-4.96
-5.23
-5.18
-5.19
-5.47
-6.00
-6.61
-7.16
-7.67
-8.32
-9.43
-11.15
-13.45
-16.05
-18.43
-20.06
-20.46
-19.32
-16.60
-12.53
-7.54
-2.23
2.83
7.19
10.56
12.81
13.85
13.67
12.27
9.84
6.74
3.46
0.56
-1.60
-2.89
-3.43
-3.47
-3.18
-2.64
-1.84
-0.81
0.34
1.33
1.93
2.04
1.77
1.40
1.23
1.40
1.88
2.53
3.27
4.13
5.34
7.11
9.54
12.42
15.35
17.75
19.15
19.26
18.00
15.47
11.85
7.39
2.48
-2.41
-6.65
-9.71
-11.23
-11.25
-10.14
-8.49
-6.88
-5.71
-5.16
-5.22
-5.83
-7.01
-8.77
-11.09
-13.73
-16.24
-18.05
-18.66
-17.79
-15.56
-12.35
-8.70
-5.10
-1.88
0.89
3.18
5.00
6.31
6.98
6.96
6.29
5.07
3.44
1.46
-0.81
-3.31
-5.86
-8.14
-9.76
-10.42
-10.05
-8.84
-7.23
-5.71
-4.65
-4.16
-4.06
-3.93
-3.21
-1.48
1.44
5.33
9.65
13.68
16.81
18.70
19.33
18.93
17.83
16.36
14.81
13.37
12.14
11.10
10.07
8.80
7.05
4.68
1.78
-1.43
-4.62
-7.50
-9.83
-11.44
-12.30
-12.44
-12.07
-11.55
-11.28
-11.59
-12.56
-13.97
-15.39
-16.33
-16.44
-15.54
-13.67
-11.01
-7.84
-4.49
-1.29
1.47
3.61
5.10
6.05
6.59
6.83
6.80
6.49
5.89
5.04
4.07
3.03
1.97
0.81
-0.52
-2.10
-3.93
-5.97
-8.11
-10.23
-12.15
-13.68
-14.62
-14.82
-14.14
-12.51
-9.93
-6.45
-2.23
2.49
7.35
11.98
16.01
19.19
21.40
22.62
22.86
22.12
20.36
17.65
14.20
10.40
6.78
3.83
1.83
0.72
0.11
-0.48
-1.51
-3.21
-5.63
-8.66
-12.17
-15.97
-19.71
-22.88
-24.78
-24.77
-22.52
-18.22
-12.55
-6.49
-0.98
3.41
6.50
8.38
9.20
9.07
7.99
6.08
3.58
0.91
-1.45
-3.17
-4.19
-4.69
-4.90
-5.05
-5.20
-5.37
-5.53
-5.72
-6.03
-6.43
-6.86
-7.15
-7.13
-6.71
-5.86
-4.62
-2.98
-0.90
1.63
4.50
7.44
10.08
12.06
13.21
13.62
13.57
13.38
13.24
13.13
12.92
12.49
11.87
11.26
10.93
10.99
11.29
11.40
10.84
9.36
7.01
4.12
1.09
-1.87
-4.76
-7.64
-10.43
-12.71
-13.85
-13.30
-10.85
-6.87
-2.12
2.51
6.35
9.14
10.92
11.91
12.30
12.20
11.65
10.65
9.22
7.40
5.29
2.99
0.65
-1.60
-3.62
-5.34
-6.70
-7.69
-8.32
-8.71
-9.07
-9.69
-10.85
-12.58
-14.53
-16.01
-16.20
-14.47
-10.60
-4.94
1.77
8.60
14.70
19.47
22.59
24.02
23.87
22.39
19.89
16.76
13.43
10.31
7.67
5.59
3.95
2.50
1.00
-0.62
-2.25
-3.61
-4.42
-4.48
-3.79
-2.58
-1.27
-0.39
-0.44
-1.66
-3.89
-6.49
-8.46
-8.83
-6.98
-2.92
2.73
8.96
14.72
19.20
22.01
23.10
22.70
21.16
18.83
16.02
13.03
10.09
7.42
5.12
3.18
1.46
-0.28
-2.17
-4.25
-6.30
-7.99
-9.03
-9.36
-9.19
-9.02
-9.38
-10.57
-12.55
-14.87
-16.80
-17.61
-16.77
-14.16
-10.02
-4.87
0.71
6.20
11.22
15.46
18.64
20.53
20.95
19.90
17.62
14.49
10.99
7.50
4.30
1.54
-0.72
-2.45
-3.66
-4.41
-4.86
-5.15
-5.46
-5.90
-6.58
-7.58
-8.94
-10.61
-12.32
-13.61
-13.90
-12.76
-10.08
-6.13
-1.50
3.22
7.57
11.33
14.43
16.89
18.61
19.48
19.39
18.31
16.29
13.44
9.93
5.93
1.70
-2.44
-6.10
-8.92
-10.71
-11.51
-11.59
-11.34
-11.13
-11.17
-11.53
-12.18
-13.15
-14.48
-16.18
-18.05
-19.66
-20.36
-19.57
-17.00
-12.83
-7.66
-2.29
2.60
6.64
9.78
12.18
14.03
15.46
16.48
17.05
17.05
16.44
15.17
13.26
10.80
7.95
5.00
2.25
-0.00
-1.59
-2.50
-2.86
-2.85
-2.58
-2.20
-1.83
-1.65
-1.84
-2.47
-3.33
-3.92
-3.61
-1.98
0.96
4.61
8.11
10.71
12.09
12.46
12.37
12.32
12.54
12.90
13.11
12.93
12.35
11.49
10.50
9.37
7.87
5.72
2.77
-0.86
-4.73
-8.20
-10.69
-11.87
-11.80
-10.96
-10.00
-9.59
-10.15
-11.80
-14.30
-17.19
-19.81
-21.51
-21.77
-20.32
-17.21
-12.80
-7.62
-2.24
2.77
6.98
10.09
11.89
12.41
11.89
10.79
9.63
8.87
8.62
8.67
8.53
7.73
6.00
3.40
0.28
-2.93
-5.82
-8.14
-9.84
-11.02
-11.84
-12.48
-13.06
-13.60
-13.98
-13.95
-13.15
-11.25
-8.05
-3.60
1.73
7.28
12.25
15.93
17.91
18.20
17.21
15.62
14.05
12.87
12.09
11.49
10.79
9.79
8.53
7.12
5.66
4.11
2.30
0.09
-2.48
-5.21
-7.69
-9.62
-10.91
-11.80
-12.66
-13.79
-15.23
-16.66
-17.53
-17.28
-15.65
-12.73
-8.89
-4.64
-0.41
3.51
6.99
9.97
12.36
14.07
14.96
14.93
13.98
12.22
9.89
7.31
4.81
2.63
0.86
-0.52
-1.57
-2.37
-2.95
-3.36
-3.73
-4.27
-5.21
-6.68
-8.66
-10.88
-12.95
-14.43
-14.87
-13.91
-11.35
-7.22
-1.83
4.22
10.23
15.56
19.73
22.56
24.04
24.29
23.45
21.76
19.49
16.98
14.56
12.45
10.72
9.30
8.12
7.11
6.25
5.54
4.91
4.26
3.42
2.27
0.69
-1.33
-3.75
-6.48
-9.32
-11.97
-14.06
-15.15
-14.90
-13.16
-10.03
-5.97
-1.65
2.17
4.93
6.36
6.60
6.06
5.23
4.48
3.95
3.63
3.43
3.28
3.15
2.99
2.67
2.03
1.00
-0.34
-1.69
-2.67
-3.04
-2.81
-2.33
-2.14
-2.74
-4.38
-6.95
-9.95
-12.76
-14.74
-15.49
-14.78
-12.67
-9.30
-4.99
-0.19
4.58
8.76
11.94
13.98
15.03
15.42
15.44
15.21
14.62
13.50
11.84
9.83
7.83
6.18
5.02
4.29
3.78
3.35
2.96
2.66
2.42
2.07
1.31
-0.19
-2.52
-5.49
-8.60
-11.24
-12.85
-13.07
-11.82
-9.23
-5.65
-1.55
2.52
6.09
8.71
10.13
10.27
9.25
7.36
4.99
2.57
0.42
-1.24
-2.36
-3.00
-3.26
-3.26
-3.11
-2.94
-2.87
-3.05
-3.54
-4.33
-5.32
-6.39
-7.49
-8.65
-9.99
-11.59
-13.37
-15.08
-16.32
-16.69
-15.94
-14.11
-11.40
-8.16
-4.71
-1.28
2.03
5.06
7.62
9.50
10.54
10.77
10.40
9.78
9.16
8.61
7.98
7.08
5.81
4.28
2.79
1.63
0.99
0.78
0.77
0.62
0.09
-0.93
-2.44
-4.35
-6.50
-8.68
-10.57
-11.76
-11.88
-10.68
-8.18
-4.70
-0.75
3.09
6.38
8.86
10.43
11.09
10.85
9.72
7.79
5.27
2.52
-0.05
-2.07
-3.36
-3.91
-3.91
-3.57
-3.12
-2.69
-2.34
-2.09
-1.95
-1.98
-2.31
-3.07
-4.28
-5.83
-7.39
-8.59
-9.09
-8.79
-7.81
-6.44
-4.93
-3.46
-2.06
-0.69
0.66
1.98
3.22
4.31
5.20
5.85
6.20
6.19
5.88
5.37
4.82
4.38
4.07
3.80
3.44
2.86
2.03
1.05
0.11
-0.62
-1.03
-1.13
-1.04
-0.99
-1.19
-1.68
-2.37
-2.95
-3.14
-2.73
-1.78
-0.47
0.94
2.31
3.67
5.07
6.54
7.89
8.83
9.07
8.52
7.31
5.72
4.06
2.45
0.89
-0.68
-2.24
-3.72
-4.99
-5.94
-6.57
-6.90
-7.02
-7.00
-6.93
-6.98
-7.31
-8.01
-8.94
-9.79
-10.05
-9.36
-7.58
-4.92
-1.86
1.06
3.48
5.21
6.31
6.91
7.14
7.06
6.72
6.19
5.58
4.99
4.47
3.97
3.37
2.57
1.62
0.71
0.12
0.09
0.64
1.47
2.18
2.34
1.78
0.61
-0.87
-2.32
-3.51
-4.35
-4.78
-4.71
-4.02
-2.66
-0.77
1.34
3.19
4.41
4.81
4.52
3.79
2.95
2.21
1.66
1.32
1.13
1.06
1.02
0.95
0.72
0.24
-0.57
-1.68
-3.04
-4.53
-6.01
-7.31
-8.31
-8.90
-9.07
-8.92
-8.61
-8.32
-8.15
-8.03
-7.75
-7.01
-5.53
-3.14
0.08
3.80
7.48
10.44
12.04
11.87
9.92
6.63
2.83
-0.58
-2.88
-3.79
-3.46
-2.32
-0.85
0.60
1.90
3.00
3.88
4.45
4.66
4.50
4.09
3.58
3.04
2.40
1.48
0.10
-1.75
-3.86
-5.81
-7.11
-7.34
-6.36
-4.25
-1.34
1.96
5.20
8.02
10.13
11.35
11.56
10.76
9.06
6.72
4.08
1.48
-0.80
-2.67
-4.17
-5.39
-6.39
-7.12
-7.50
-7.51
-7.29
-7.14
-7.40
-8.28
-9.76
-11.56
-13.30
-14.64
-15.34
-15.33
-14.58
-13.07
-10.81
-7.85
-4.42
-0.86
2.41
5.05
6.90
7.95
8.30
8.07
7.27
5.85
3.75
1.03
-2.04
-5.01
-7.34
-8.64
-8.81
-8.05
-6.81
-5.50
-4.39
-3.48
-2.63
-1.69
-0.69
0.18
0.60
0.32
-0.67
-2.15
-3.76
-5.08
-5.78
-5.65
-4.53
-2.39
0.69
4.48
8.59
12.50
15.72
17.87
18.79
18.51
17.21
15.11
12.44
9.40
6.23
3.15
0.40
-1.83
-3.44
-4.44
-4.94
-5.10
-5.12
-5.20
-5.56
-6.38
-7.79
-9.77
-12.12
-14.45
-16.24
-16.98
-16.31
-14.12
-10.59
-6.07
-1.08
3.84
8.26
11.87
14.55
16.35
17.44
17.89
17.69
16.66
14.66
11.66
7.93
3.93
0.24
-2.68
-4.65
-5.71
-6.10
-6.07
-5.78
-5.25
-4.52
-3.66
-2.90
-2.50
-2.63
-3.27
-4.17
-4.94
-5.19
-4.72
-3.53
-1.76
0.42
2.89
5.60
8.45
11.25
13.78
15.79
17.15
17.89
18.07
17.71
16.69
14.73
11.54
6.97
1.26
-4.98
-10.88
-15.53
-18.31
-19.10
-18.27
-16.52
-14.59
-13.10
-12.38
-12.57
-13.69
-15.61
-18.06
-20.49
-22.19
-22.41
-20.66
-16.92
-11.72
-5.91
-0.42
4.03
7.13
8.91
9.65
9.72
9.41
8.88
8.18
7.29
6.13
4.67
2.93
0.91
-1.35
-3.81
-6.37
-8.90
-11.23
-13.24
-14.89
-16.28
-17.46
-18.42
-18.97
-18.75
-17.37
-14.55
-10.22
-4.61
1.84
8.57
14.98
20.62
25.16
28.38
30.18
30.52
29.41
27.03
23.74
20.13
16.91
14.72
13.95
14.52
15.88
17.12
17.16
15.01
9.97
1.86
-8.84
-21.01
-33.02
-43.11
-49.79
-52.30
-50.69
-45.68
-38.29
-29.53
-20.22
-11.05
-2.60
4.53
9.89
13.34
15.21
16.18
17.10
18.56
20.68
23.12
25.24
26.42
26.37
25.15
23.22
21.14
19.48
18.51
18.12
17.76
16.44
12.88
5.93
-5.06
-19.77
-36.71
-53.41
-66.96
-74.78
-75.35
-68.64
-55.97
-39.64
-22.20
-5.82
8.08
18.94
26.86
32.32
35.95
38.32
39.92
41.07
41.93
42.50
42.57
41.92
40.46
38.40
36.30
34.89
34.79
36.11
38.22
39.83
39.16
34.54
24.86
10.08
-8.53
-28.47
-46.54
-59.62
-65.50
-63.63
-55.15
-42.48
-28.46
-15.46
-4.92
2.73
7.69
10.43
11.41
11.11
10.12
9.17
8.93
9.83
11.86
14.54
17.15
19.10
20.10
20.32
20.22
20.41
21.33
23.00
24.85
25.89
24.86
20.74
13.10
2.36
-10.24
-22.97
-34.01
-41.83
-45.54
-44.87
-40.22
-32.44
-22.73
-12.43
-2.79
5.20
10.97
14.43
15.94
16.09
15.58
14.96
14.55
14.40
14.36
14.23
13.86
13.23
12.44
11.65
11.03
10.65
10.46
10.24
9.57
7.92
4.78
-0.11
-6.52
-13.70
-20.42
-25.29
-27.23
-25.83
-21.49
-15.33
-8.73
-2.86
1.58
4.48
6.10
6.75
6.68
6.01
4.90
3.67
2.74
2.56
3.35
5.05
7.31
9.63
11.46
12.38
12.16
10.85
8.83
6.78
5.49
5.66
7.56
10.87
14.63
17.50
18.08
15.40
9.25
0.29
-10.02
-19.82
-27.30
-31.24
-31.19
-27.58
-21.47
-14.18
-7.03
-1.05
3.25
5.78
6.94
7.35
7.64
8.24
9.23
10.42
11.48
12.09
12.09
11.48
10.44
9.27
8.37
8.14
8.85
10.43
12.36
13.69
13.33
10.41
4.68
-3.32
-12.39
-20.94
-27.49
-31.04
-31.35
-28.88
-24.66
-19.88
-15.53
-12.23
-10.15
-9.15
-8.98
-9.36
-10.04
-10.73
-11.13
-10.92
-9.97
-8.39
-6.49
-4.75
-3.52
-2.91
-2.71
-2.38
-1.25
1.31
5.65
11.69
18.78
25.77
31.18
33.54
31.86
25.90
16.39
4.81
-6.88
-16.77
-23.48
-26.40
-25.70
-22.20
-16.97
-11.10
-5.44
-0.58
3.17
5.74
7.22
7.84
7.92
7.75
7.51
7.24
6.86
6.22
5.28
4.16
3.20
2.86
3.62
5.87
9.68
14.80
20.55
25.90
29.61
30.53
27.91
21.66
12.36
1.23
-10.18
-20.29
-27.81
-32.03
-32.89
-30.94
-27.19
-22.74
-18.50
-15.02
-12.49
-10.85
-10.03
-10.01
-10.71
-11.96
-13.35
-14.33
-14.38
-13.24
-10.95
-7.86
-4.38
-0.89
2.44
5.57
8.57
11.49
14.33
16.98
19.19
20.46
20.19
17.73
12.75
5.42
-3.38
-12.29
-19.76
-24.59
-26.32
-25.25
-22.23
-18.25
-14.05
-10.07
-6.49
-3.45
-1.13
0.28
0.82
0.85
0.97
1.87
3.92
7.06
10.78
14.34
17.13
18.82
19.53
19.66
19.70
20.05
20.84
21.87
22.71
22.74
21.31
17.94
12.42
4.90
-4.04
-13.46
-22.17
-29.03
-33.19
-34.34
-32.84
-29.58
-25.73
-22.38
-20.23
-19.48
-19.84
-20.71
-21.31
-20.91
-18.98
-15.30
-10.05
-3.77
2.72
8.59
13.18
16.15
17.50
17.47
16.49
15.02
13.56
12.55
12.30
12.85
13.92
14.91
15.06
13.63
10.18
4.70
-2.31
-9.95
-17.15
-22.89
-26.45
-27.65
-26.74
-24.33
-21.09
-17.46
-13.55
-9.21
-4.23
1.43
7.53
13.58
19.03
23.46
26.63
28.47
28.99
28.25
26.39
23.71
20.69
17.89
15.82
14.79
14.79
15.48
16.25
16.32
14.99
11.78
6.54
-0.48
-8.73
-17.51
-26.05
-33.61
-39.52
-43.24
-44.45
-43.08
-39.34
-33.70
-26.77
-19.24
-11.77
-4.96
0.76
5.19
8.42
10.74
12.54
14.08
15.45
16.52
17.08
17.02
16.37
15.28
14.04
12.91
12.19
12.05
12.59
13.69
14.90
15.49
14.56
11.26
5.15
-3.51
-13.68
-23.71
-31.76
-36.35
-36.79
-33.27
-26.73
-18.43
-9.54
-0.98
6.68
13.05
17.89
21.11
22.78
23.24
22.93
22.30
21.56
20.70
19.53
17.86
15.72
13.33
11.03
9.23
8.17
7.98
8.52
9.39
9.96
9.40
6.97
2.22
-4.76
-13.22
-21.97
-29.63
-35.00
-37.37
-36.58
-33.01
-27.35
-20.48
-13.24
-6.43
-0.61
3.80
6.69
8.21
8.85
9.19
9.83
11.05
12.79
14.63
16.05
16.64
16.38
15.54
14.66
14.27
14.76
16.24
18.57
21.37
23.95
25.34
24.41
20.11
11.92
0.19
-13.64
-27.36
-38.46
-44.94
-45.88
-41.70
-33.91
-24.47
-15.23
-7.43
-1.58
2.33
4.60
5.66
5.89
5.69
5.45
5.47
5.87
6.51
7.02
6.93
5.99
4.24
2.08
0.14
-0.98
-0.98
0.03
1.48
2.54
2.34
0.32
-3.59
-8.91
-14.68
-19.81
-23.39
-24.90
-24.30
-21.94
-18.34
-14.09
-9.68
-5.62
-2.28
0.03
1.22
1.37
0.83
-0.05
-0.91
-1.56
-1.94
-2.06
-1.92
-1.54
-0.95
-0.26
0.36
0.71
0.67
0.25
-0.41
-1.05
-1.44
-1.47
-1.14
-0.57
0.10
0.84
1.65
2.57
3.58
4.59
5.45
6.09
6.59
7.15
8.02
9.31
10.87
12.40
13.52
13.99
13.81
13.29
12.81
12.73
13.15
13.94
14.74
15.19
15.04
14.31
13.20
12.07
11.27
11.06
11.57
12.69
14.10
15.19
15.18
13.21
8.71
1.67
-7.22
-16.61
-24.86
-30.52
-32.80
-31.71
-28.01
-22.83
-17.30
-12.27
-8.26
-5.50
-4.06
-3.89
-4.84
-6.54
-8.44
-9.86
-10.28
-9.49
-7.73
-5.60
-3.84
-3.02
-3.35
-4.58
-6.12
-7.17
-7.00
-5.13
-1.50
3.43
8.75
13.27
15.86
15.77
12.96
8.11
2.46
-2.67
-6.24
-7.80
-7.49
-5.83
-3.44
-0.78
1.84
4.29
6.39
7.93
8.70
8.70
8.19
7.64
7.56
8.20
9.38
10.57
11.13
10.66
9.23
7.41
6.02
5.86
7.36
10.46
14.60
18.86
22.11
23.26
21.50
16.46
8.46
-1.52
-11.92
-21.06
-27.54
-30.62
-30.42
-27.73
-23.73
-19.54
-15.96
-13.36
-11.78
-11.08
-11.09
-11.64
-12.54
-13.50
-14.23
-14.49
-14.22
-13.53
-12.63
-11.65
-10.53
-9.01
-6.76
-3.60
0.36
4.68
8.81
12.12
14.17
14.73
13.75
11.38
7.92
3.87
-0.13
-3.43
-5.49
-6.10
-5.36
-3.64
-1.42
0.93
3.15
5.15
6.86
8.21
9.06
9.34
9.04
8.26
7.18
6.02
4.97
4.13
3.57
3.33
3.51
4.20
5.47
7.31
9.56
11.92
13.98
15.25
15.32
13.88
10.83
6.34
0.81
-5.10
-10.60
-14.89
-17.33
-17.70
-16.25
-13.61
-10.61
-8.00
-6.24
-5.46
-5.54
-6.27
-7.49
-9.02
-10.58
-11.77
-12.11
-11.21
-8.94
-5.55
-1.53
2.51
6.08
8.95
11.16
12.88
14.37
15.83
17.27
18.50
19.06
18.37
15.85
11.25
4.81
-2.64
-9.93
-15.86
-19.51
-20.54
-19.20
-16.11
-12.10
-7.98
-4.38
-1.72
-0.25
0.04
-0.62
-1.77
-2.77
-2.97
-1.95
0.39
3.69
7.30
10.53
12.89
14.22
14.74
14.82
14.80
14.91
15.23
15.67
16.01
15.86
14.72
12.07
7.57
1.28
-6.31
-14.33
-21.80
-27.80
-31.67
-33.07
-31.99
-28.86
-24.45
-19.83
-16.05
-13.83
-13.29
-13.86
-14.55
-14.40
-12.82
-9.80
-5.84
-1.69
1.97
4.74
6.51
7.43
7.79
7.86
7.85
7.91
8.09
8.31
8.34
7.80
6.27
3.45
-0.60
-5.39
-10.09
-13.78
-15.79
-15.97
-14.66
-12.56
-10.39
-8.63
-7.43
-6.69
-6.15
-5.52
-4.51
-2.87
-0.44
2.76
6.50
10.34
13.71
16.15
17.34
17.30
16.23
14.50
12.53
10.65
9.01
7.61
6.26
4.71
2.73
0.22
-2.73
-5.83
-8.72
-10.97
-12.30
-12.65
-12.21
-11.43
-10.90
-11.11
-12.27
-14.23
-16.52
-18.53
-19.74
-19.84
-18.78
-16.70
-13.80
-10.38
-6.72
-3.21
-0.19
2.03
3.32
3.76
3.57
2.99
2.18
1.22
0.11
-1.08
-2.21
-3.08
-3.56
-3.69
-3.67
-3.80
-4.27
-5.13
-6.23
-7.43
-8.65
-9.87
-11.01
-11.79
-11.61
-9.83
-6.01
-0.28
6.67
13.72
19.78
24.12
26.60
27.51
27.34
26.56
25.43
24.01
22.31
20.29
18.00
15.50
12.92
10.38
8.03
5.97
4.29
2.96
1.87
0.80
-0.62
-2.77
-5.97
-10.34
-15.57
-20.99
-25.57
-28.31
-28.49
-25.96
-21.17
-15.00
-8.45
-2.40
2.56
6.23
8.61
9.89
10.33
10.21
9.82
9.43
9.26
9.43
9.90
10.45
10.78
10.61
9.85
8.65
7.40
6.54
6.29
6.60
7.07
7.19
6.49
4.73
1.90
-1.78
-5.97
-10.21
-13.96
-16.58
-17.43
-16.05
-12.36
-6.71
0.10
7.03
13.14
17.77
20.73
22.24
22.78
22.81
22.65
22.41
22.05
21.48
20.66
19.60
18.42
17.24
16.20
15.43
15.05
15.17
15.74
16.53
16.98
16.28
13.59
8.30
0.35
-9.57
-20.11
-29.56
-36.27
-39.15
-37.92
-33.15
-26.05
-18.07
-10.54
-4.45
-0.32
1.83
2.37
1.93
1.28
1.12
1.88
3.62
6.02
8.55
10.69
12.14
12.95
13.45
14.03
15.07
16.67
18.71
20.74
22.07
21.80
19.09
13.42
4.90
-5.52
-16.19
-25.15
-30.73
-32.05
-29.34
-23.72
-16.73
-9.79
-3.79
0.92
4.36
6.63
7.81
7.96
7.29
6.23
5.33
5.07
5.56
6.57
7.58
8.06
7.77
6.76
5.42
4.20
3.49
3.46
4.11
5.26
6.62
7.74
8.13
7.30
4.92
1.00
-4.06
-9.45
-14.26
-17.64
-19.15
-18.83
-17.12
-14.69
-12.15
-9.96
-8.33
-7.35
-7.01
-7.25
-7.96
-8.89
-9.69
-10.02
-9.69
-8.81
-7.76
-7.04
-7.00
-7.72
-8.89
-10.02
-10.57
-10.20
-8.80
-6.50
-3.60
-0.48
2.44
4.81
6.37
7.02
6.84
6.06
5.02
3.99
3.16
2.61
2.32
2.22
2.31
2.64
3.23
4.08
5.05
5.94
6.56
6.81
6.74
6.51
6.25
5.97
5.55
4.81
3.65
2.21
0.86
0.05
0.15
1.25
3.16
5.50
7.83
9.82
11.20
11.75
11.27
9.63
6.91
3.47
-0.03
-2.91
-4.63
-5.08
-4.54
-3.46
-2.27
-1.16
-0.15
0.85
1.80
2.51
2.70
2.13
0.78
-1.19
-3.45
-5.61
-7.36
-8.40
-8.49
-7.46
-5.28
-2.15
1.55
5.27
8.55
11.17
13.19
14.85
16.41
17.91
19.08
19.35
18.01
14.50
8.63
0.82
-7.95
-16.23
-22.55
-25.82
-25.66
-22.52
-17.39
-11.50
-5.88
-1.19
2.34
4.74
6.18
6.90
7.19
7.43
8.04
9.28
11.26
13.78
16.47
18.93
20.91
22.41
23.58
24.67
25.85
27.09
28.06
28.15
26.60
22.73
16.24
7.35
-3.13
-14.04
-24.21
-32.73
-39.06
-43.00
-44.54
-43.78
-41.05
-36.95
-32.34
-28.24
-25.38
-24.00
-23.67
-23.51
-22.59
-20.31
-16.67
-12.13
-7.36
-2.94
0.85
4.00
6.61
8.75
10.40
11.45
11.86
11.72
11.24
10.69
10.25
9.93
9.62
9.10
8.15
6.57
4.33
1.47
-1.76
-5.08
-8.06
-10.29
-11.47
-11.42
-10.21
-8.11
-5.49
-2.74
-0.09
2.36
4.70
7.01
9.30
11.41
13.14
14.24
14.57
14.17
13.19
11.84
10.33
8.80
7.37
6.21
5.49
5.34
5.68
6.11
5.96
4.49
1.23
-3.71
-9.61
-15.29
-19.59
-21.71
-21.60
-19.87
-17.45
-15.19
-13.47
-12.18
-10.82
-8.94
-6.28
-2.94
0.76
4.47
7.97
11.23
14.28
17.07
19.38
20.88
21.29
20.54
18.89
16.88
15.18
14.39
14.81
16.39
18.66
20.77
21.75
20.61
16.66
9.73
0.25
-10.66
-21.43
-30.42
-36.35
-38.64
-37.54
-33.87
-28.72
-23.03
-17.40
-12.08
-7.21
-2.89
0.67
3.31
4.99
5.89
6.36
6.74
7.22
7.76
8.13
8.06
7.44
6.35
5.08
4.03
3.57
3.90
5.02
6.70
8.50
9.80
9.88
8.00
3.66
-3.08
-11.47
-20.06
-27.09
-31.06
-31.27
-27.99
-22.32
-15.71
-9.42
-4.23
-0.37
2.28
3.98
4.98
5.49
5.76
6.04
6.59
7.50
8.66
9.76
10.44
10.45
9.84
8.96
8.39
8.72
10.29
13.01
16.28
19.05
20.10
18.38
13.38
5.33
-4.74
-15.29
-24.56
-31.08
-34.00
-33.21
-29.36
-23.51
-16.92
-10.64
-5.40
-1.51
1.11
2.77
3.84
4.65
5.36
5.98
6.37
6.36
5.84
4.84
3.58
2.37
1.58
1.43
1.92
2.79
3.54
3.59
2.41
-0.27
-4.39
-9.43
-14.52
-18.65
-20.91
-20.80
-18.37
-14.17
-9.05
-3.97
0.34
3.46
5.27
5.92
5.58
4.47
2.81
0.89
-0.92
-2.23
-2.78
-2.51
-1.62
-0.49
0.48
1.07
1.22
1.04
0.66
0.18
-0.38
-1.00
-1.60
-2.08
-2.30
-2.19
-1.77
-1.13
-0.35
0.52
1.46
2.46
3.46
4.31
4.85
4.91
4.48
3.67
2.73
1.87
1.23
0.77
0.36
-0.12
-0.69
-1.24
-1.60
-1.69
-1.56
-1.41
-1.50
-1.98
-2.86
-4.00
-5.16
-6.10
-6.70
-6.84
-6.52
-5.69
-4.31
-2.44
-0.21
2.12
4.19
5.74
6.60
6.84
6.60
6.09
5.43
4.59
3.57
2.41
1.25
0.25
-0.50
-1.08
-1.68
-2.47
-3.40
-4.21
-4.59
-4.31
-3.45
-2.33
-1.40
-1.01
-1.29
-2.10
-3.16
-4.14
-4.72
-4.63
-3.69
-1.84
0.81
3.89
6.88
9.20
10.41
10.30
8.99
6.83
4.33
1.95
0.07
-1.17
-1.73
-1.74
-1.35
-0.74
-0.08
0.50
0.95
1.33
1.79
2.52
3.61
5.00
6.40
7.40
7.61
6.75
4.81
2.03
-1.12
-4.07
-6.24
-7.23
-6.86
-5.24
-2.73
0.18
2.99
5.29
6.79
7.40
7.17
6.31
5.13
3.93
2.94
2.25
1.78
1.39
0.97
0.48
0.00
-0.40
-0.70
-0.97
-1.37
-2.04
-3.05
-4.30
-5.62
-6.77
-7.60
-8.05
-8.15
-7.98
-7.58
-6.88
-5.83
-4.39
-2.60
-0.60
1.44
3.36
5.05
6.39
7.27
7.56
7.13
5.95
4.12
1.88
-0.45
-2.52
-4.02
-4.76
-4.64
-3.76
-2.32
-0.65
0.92
2.04
2.54
2.36
1.66
0.77
0.09
0.00
0.73
2.22
4.14
6.00
7.28
7.66
7.10
5.85
4.31
2.87
1.80
1.19
1.02
1.14
1.37
1.49
1.30
0.64
-0.50
-1.99
-3.51
-4.74
-5.42
-5.47
-4.97
-4.16
-3.29
-2.60
-2.30
-2.52
-3.35
-4.76
-6.58
-8.47
-10.02
-10.81
-10.49
-8.94
-6.25
-2.73
1.13
4.84
7.95
10.15
11.35
11.62
11.13
10.13
8.87
7.58
6.47
5.65
5.20
5.01
4.81
4.23
2.83
0.35
-3.23
-7.54
-11.94
-15.74
-18.43
-19.87
-20.24
-19.87
-18.96
-17.49
-15.26
-12.10
-8.03
-3.38
1.35
5.65
9.25
12.08
14.20
15.68
16.43
16.37
15.39
13.60
11.29
8.87
6.69
4.98
3.71
2.72
1.79
0.79
-0.25
-1.23
-1.99
-2.50
-2.83
-3.19
-3.83
-4.92
-6.50
-8.40
-10.32
-11.94
-12.93
-13.07
-12.26
-10.51
-8.01
-5.03
-1.98
0.78
2.96
4.41
5.19
5.46
5.44
5.30
5.19
5.17
5.25
5.41
5.58
5.64
5.54
5.28
4.97
4.80
4.95
5.49
6.35
7.24
7.76
7.50
6.05
3.16
-1.17
-6.66
-12.65
-18.18
-22.20
-23.83
-22.65
-18.86
-13.18
-6.66
-0.31
5.21
9.63
13.01
15.58
17.50
18.83
19.55
19.69
19.34
18.68
17.83
16.84
15.64
14.13
12.31
10.31
8.40
6.89
5.99
5.70
5.76
5.67
4.85
2.76
-0.88
-5.97
-11.95
-17.91
-22.79
-25.68
-26.08
-24.04
-20.08
-15.01
-9.65
-4.69
-0.56
2.53
4.54
5.54
5.75
5.46
5.03
4.77
4.86
5.25
5.75
6.11
6.15
5.79
5.12
4.34
3.65
3.27
3.31
3.79
4.58
5.46
6.07
6.04
5.07
3.03
0.01
-3.61
-7.26
-10.33
-12.25
-12.65
-11.40
-8.64
-4.77
-0.33
4.12
8.06
11.15
13.30
14.68
15.56
16.24
16.86
17.34
17.49
17.10
16.09
14.55
12.69
10.72
8.85
7.22
5.99
5.26
5.08
5.32
5.68
5.72
5.01
3.30
0.55
-3.07
-7.31
-11.86
-16.37
-20.39
-23.38
-24.74
-24.09
-21.35
-16.91
-11.49
-5.96
-1.07
2.73
5.32
6.85
7.61
7.89
7.94
7.97
8.11
8.41
8.83
9.24
9.46
9.36
8.88
8.11
7.26
6.59
6.33
6.52
7.01
7.41
7.22
5.96
3.38
-0.52
-5.36
-10.57
-15.40
-19.17
-21.36
-21.70
-20.22
-17.19
-13.13
-8.65
-4.37
-0.79
1.83
3.49
4.42
4.97
5.41
5.87
6.27
6.40
6.10
5.35
4.28
3.14
2.18
1.54
1.26
1.36
1.85
2.72
3.86
4.93
5.52
5.15
3.60
1.00
-2.21
-5.41
-8.03
-9.73
-10.41
-10.14
-9.03
-7.22
-4.87
-2.23
0.35
2.48
3.84
4.28
3.88
2.93
1.81
0.87
0.31
0.16
0.27
0.45
0.52
0.38
-0.03
-0.62
-1.34
-2.05
-2.64
-2.98
-3.00
-2.70
-2.23
-1.86
-1.94
-2.72
-4.26
-6.31
-8.36
-9.80
-10.13
-9.14
-7.01
-4.21
-1.32
1.18
3.05
4.31
5.13
5.71
6.15
6.44
6.51
6.30
5.86
5.32
4.81
4.39
4.06
3.69
3.12
2.31
1.29
0.25
-0.57
-0.98
-0.96
-0.66
-0.37
-0.37
-0.85
-1.84
-3.25
-4.93
-6.78
-8.71
-10.58
-12.17
-13.16
-13.25
-12.28
-10.34
-7.78
-5.05
-2.60
-0.69
0.55
1.15
1.16
0.71
-0.06
-0.91
-1.59
-1.87
-1.69
-1.15
-0.47
0.07
0.32
0.28
0.06
-0.20
-0.41
-0.59
-0.81
-1.09
-1.44
-1.85
-2.35
-2.98
-3.81
-4.75
-5.57
-5.98
-5.73
-4.78
-3.32
-1.68
-0.19
1.04
2.02
2.88
3.73
4.58
5.34
5.91
6.24
6.38
6.45
6.55
6.71
6.86
6.86
6.58
5.97
5.02
3.86
2.61
1.40
0.30
-0.58
-1.16
-1.35
-1.13
-0.65
-0.23
-0.29
-1.14
-2.84
-5.06
-7.24
-8.75
-9.19
-8.52
-7.07
-5.35
-3.84
-2.80
-2.29
-2.15
-2.23
-2.46
-2.79
-3.23
-3.67
-3.89
-3.65
-2.86
-1.57
-0.14
1.02
1.51
1.17
0.13
-1.21
-2.34
-2.75
-2.15
-0.49
2.00
4.78
7.20
8.59
8.48
6.77
3.73
-0.02
-3.71
-6.62
-8.28
-8.49
-7.39
-5.30
-2.68
0.02
2.40
4.17
5.23
5.68
5.78
5.91
6.37
7.26
8.39
9.39
9.83
9.41
8.09
6.15
4.04
2.31
1.45
1.74
3.21
5.54
8.13
10.20
10.99
9.98
7.06
2.54
-2.98
-8.77
-14.12
-18.44
-21.32
-22.49
-22.00
-20.17
-17.64
-15.13
-13.28
-12.37
-12.26
-12.50
-12.56
-12.06
-10.90
-9.32
-7.67
-6.39
-5.73
-5.77
-6.34
-7.07
-7.49
-7.15
-5.80
-3.44
-0.32
3.10
6.39
9.17
11.22
12.42
12.75
12.22
10.95
9.12
6.96
4.75
2.73
1.11
0.09
-0.19
0.33
1.62
3.46
5.53
7.43
8.86
9.69
10.00
9.97
9.73
9.29
8.57
7.51
6.22
4.97
4.21
4.32
5.50
7.68
10.57
13.79
16.97
19.80
21.95
23.05
22.71
20.56
16.40
10.32
2.85
-5.15
-12.59
-18.40
-21.81
-22.61
-21.10
-18.08
-14.44
-10.99
-8.18
-6.19
-4.98
-4.39
-4.26
-4.38
-4.51
-4.38
-3.76
-2.54
-0.70
1.69
4.51
7.59
10.76
13.87
16.80
19.57
22.31
25.17
28.09
30.67
32.07
31.27
27.44
20.33
10.56
-0.55
-11.32
-20.21
-26.19
-28.91
-28.59
-25.84
-21.42
-16.09
-10.53
-5.31
-0.84
2.64
5.06
6.56
7.39
7.89
8.29
8.78
9.37
10.05
10.81
11.74
13.04
14.93
17.53
20.70
24.03
26.86
28.41
28.00
25.17
19.80
12.07
2.52
-8.08
-18.76
-28.52
-36.47
-41.97
-44.74
-44.89
-42.93
-39.58
-35.68
-31.99
-29.03
-27.00
-25.76
-24.93
-24.05
-22.72
-20.68
-17.87
-14.32
-10.17
-5.61
-0.89
3.65
7.68
10.96
13.50
15.51
17.28
18.92
20.14
20.35
18.76
14.86
8.64
0.76
-7.62
-15.21
-20.89
-24.03
-24.50
-22.66
-19.11
-14.66
-10.11
-6.19
-3.45
-2.06
-1.85
-2.33
-2.79
-2.55
-1.20
1.36
4.86
8.80
12.61
15.85
18.23
19.75
20.61
21.14
21.62
22.18
22.67
22.76
21.98
19.94
16.47
11.68
5.95
-0.11
-5.79
-10.42
-13.40
-14.48
-13.75
-11.76
-9.31
-7.22
-6.11
-6.17
-7.30
-9.15
-11.38
-13.63
-15.54
-16.68
-16.59
-15.02
-12.02
-8.04
-3.83
-0.12
2.61
4.32
5.31
6.03
6.85
7.93
9.16
10.27
10.93
10.88
9.90
7.85
4.65
0.30
-4.97
-10.70
-16.18
-20.57
-23.19
-23.71
-22.32
-19.62
-16.41
-13.36
-10.86
-8.87
-7.10
-5.16
-2.73
0.32
3.91
7.78
11.61
15.01
17.69
19.49
20.42
20.61
20.36
19.94
19.61
19.51
19.67
20.01
20.35
20.36
19.60
17.59
13.95
8.59
1.81
-5.77
-13.36
-20.26
-26.03
-30.47
-33.62
-35.60
-36.54
-36.58
-35.80
-34.29
-32.04
-29.01
-25.15
-20.47
-15.16
-9.58
-4.18
0.63
4.59
7.62
9.76
11.10
11.73
11.74
11.28
10.57
9.89
9.51
9.60
10.11
10.83
11.32
11.07
9.63
6.69
2.24
-3.39
-9.55
-15.41
-20.21
-23.43
-25.05
-25.39
-24.93
-24.08
-22.92
-21.25
-18.68
-14.95
-10.04
-4.33
1.60
7.08
11.54
14.66
16.41
16.99
16.73
16.01
15.13
14.28
13.56
12.95
12.41
11.82
10.99
9.66
7.53
4.33
-0.04
-5.44
-11.55
-17.93
-24.16
-29.94
-35.04
-39.16
-41.97
-43.00
-41.85
-38.39
-32.85
-25.86
-18.24
-10.80
-4.06
1.70
6.45
10.25
13.14
15.17
16.45
17.24
17.89
18.76
20.06
21.80
23.80
25.77
27.45
28.70
29.48
29.82
29.68
28.91
27.25
24.38
20.06
14.27
7.21
-0.65
-8.59
-15.76
-21.22
-24.17
-24.09
-20.95
-15.23
-7.90
-0.10
7.15
13.22
17.96
21.51
24.13
25.86
26.63
26.31
25.01
23.14
21.31
20.12
19.86
20.46
21.47
22.29
22.36
21.21
18.58
14.34
8.50
1.28
-6.95
-15.65
-24.25
-32.14
-38.82
-43.81
-46.75
-47.39
-45.69
-41.82
-36.22
-29.48
-22.27
-15.25
-8.96
-3.74
0.35
3.47
5.96
8.14
10.20
12.07
13.45
14.03
13.60
12.30
10.61
9.18
8.64
9.37
11.39
14.34
17.62
20.46
22.06
21.69
18.93
13.82
6.97
-0.52
-7.36
-12.42
-15.15
-15.71
-14.89
-13.66
-12.74
-12.32
-12.00
-11.11
-9.11
-5.91
-1.89
2.25
5.90
8.79
11.00
12.73
14.07
14.83
14.67
13.39
11.18
8.63
6.53
5.50
5.74
6.99
8.65
10.06
10.79
10.69
9.85
8.51
6.91
5.17
3.26
1.02
-1.82
-5.50
-10.11
-15.44
-20.98
-25.99
-29.72
-31.71
-31.92
-30.71
-28.73
-26.52
-24.38
-22.24
-19.74
-16.58
-12.61
-8.04
-3.31
1.05
4.56
6.88
7.86
7.60
6.50
5.33
5.16
7.11
11.94
19.54
28.82
37.81
44.33
46.69
44.26
37.66
28.32
18.02
8.21
-0.19
-6.82
-11.70
-15.00
-16.93
-17.71
-17.57
-16.70
-15.25
-13.20
-10.50
-7.07
-2.90
1.91
7.09
12.24
16.80
20.16
21.73
21.28
19.07
16.02
13.51
13.01
15.55
21.25
29.21
37.77
45.02
49.35
49.86
46.46
39.68
30.37
19.44
7.74
-3.95
-14.91
-24.54
-32.46
-38.52
-42.85
-45.73
-47.43
-48.09
-47.74
-46.36
-43.94
-40.61
-36.57
-32.09
-27.44
-22.86
-18.52
-14.43
-10.46
-6.25
-1.38
4.54
11.64
19.74
28.40
37.08
45.32
52.85
59.40
64.63
67.98
68.76
66.36
60.58
51.73
40.54
28.02
15.12
2.59
-9.05
-19.43
-28.23
-35.16
-39.99
-42.61
-43.13
-41.94
-39.61
-36.75
-33.83
-30.94
-27.76
-23.65
-18.03
-10.70
-2.14
6.63
14.34
19.97
23.08
23.93
23.33
22.20
21.32
21.03
21.22
21.44
21.11
19.78
17.20
13.44
8.82
3.74
-1.41
-6.37
-10.99
-15.25
-19.19
-22.92
-26.65
-30.57
-34.86
-39.48
-44.17
-48.37
-51.37
-52.47
-51.14
-47.19
-40.85
-32.70
-23.54
-14.24
-5.56
1.98
8.10
12.71
15.87
17.72
18.49
18.48
18.01
17.39
16.79
16.30
15.86
15.39
14.82
14.18
13.55
13.06
12.75
12.62
12.57
12.42
11.88
10.64
8.37
4.81
-0.02
-5.71
-11.40
-15.86
-17.89
-16.66
-12.10
-4.92
3.60
12.05
19.36
24.93
28.66
30.66
31.04
29.85
27.07
22.81
17.37
11.27
5.13
-0.49
-5.19
-8.78
-11.21
-12.50
-12.64
-11.67
-9.64
-6.80
-3.59
-0.62
1.49
2.31
1.76
0.20
-1.72
-3.20
-3.63
-2.75
-0.67
2.18
5.25
8.10
10.42
12.14
13.26
13.83
13.89
13.47
12.62
11.47
10.23
9.07
8.13
7.40
6.77
5.99
4.86
3.22
1.10
-1.34
-3.82
-6.01
-7.70
-8.82
-9.47
-9.87
-10.30
-10.97
-11.87
-12.78
-13.25
-12.74
-10.81
-7.26
-2.27
3.62
9.66
15.01
18.97
21.15
21.41
19.91
16.97
13.01
8.47
3.84
-0.38
-3.70
-5.73
-6.26
-5.33
-3.22
-0.38
2.67
5.49
7.73
9.16
9.66
9.15
7.58
4.91
1.21
-3.42
-8.72
-14.30
-19.56
-23.84
-26.43
-26.76
-24.54
-19.88
-13.30
-5.64
2.18
9.38
15.60
20.82
25.29
29.25
32.67
35.27
36.56
36.21
34.25
31.13
27.63
24.60
22.66
22.06
22.64
23.89
25.08
25.41
24.19
20.91
15.41
7.89
-1.11
-10.79
-20.23
-28.47
-34.73
-38.53
-39.87
-39.23
-37.42
-35.28
-33.38
-31.87
-30.48
-28.79
-26.51
-23.55
-20.07
-16.29
-12.37
-8.41
-4.46
-0.69
2.72
5.52
7.57
8.87
9.52
9.73
9.84
10.27
11.40
13.50
16.47
19.75
22.39
23.32
21.69
17.23
10.34
1.98
-6.71
-14.68
-21.24
-26.03
-28.94
-29.99
-29.28
-27.03
-23.62
-19.53
-15.25
-11.09
-7.15
-3.29
0.74
5.11
9.79
14.54
18.94
22.55
25.05
26.33
26.59
26.26
25.89
25.93
26.53
27.46
28.07
27.56
25.25
20.84
14.63
7.35
-0.02
-6.62
-11.90
-15.76
-18.42
-20.36
-22.11
-24.13
-26.65
-29.64
-32.69
-35.19
-36.50
-36.16
-34.11
-30.59
-26.05
-20.93
-15.52
-9.98
-4.41
0.95
5.75
9.64
12.34
13.82
14.31
14.19
13.92
13.91
14.49
15.92
18.37
21.88
26.20
30.79
34.76
37.08
36.82
33.43
26.92
17.80
6.97
-4.48
-15.57
-25.45
-33.53
-39.39
-42.82
-43.78
-42.41
-38.98
-33.92
-27.65
-20.58
-13.01
-5.21
2.45
9.38
14.74
17.67
17.68
14.98
10.49
5.61
1.73
-0.26
-0.09
1.88
5.08
8.97
13.14
17.26
20.93
23.66
24.90
24.21
21.40
16.55
10.03
2.43
-5.56
-13.20
-19.82
-24.92
-28.25
-29.81
-29.82
-28.56
-26.30
-23.26
-19.54
-15.24
-10.51
-5.61
-0.94
3.03
5.90
7.48
7.80
7.26
6.48
6.23
7.29
10.29
15.45
22.47
30.48
38.18
44.17
47.25
46.71
42.42
34.74
24.34
12.11
-0.99
-13.88
-25.48
-34.80
-41.15
-44.32
-44.62
-42.70
-39.35
-35.17
-30.42
-25.13
-19.22
-12.76
-6.09
0.15
5.26
8.67
10.12
9.79
8.20
6.19
4.72
4.74
6.94
11.54
18.09
25.47
32.17
36.74
38.22
36.41
31.75
25.08
17.27
8.97
0.53
-7.84
-15.96
-23.60
-30.46
-36.19
-40.44
-42.90
-43.35
-41.75
-38.31
-33.48
-27.80
-21.85
-16.08
-10.81
-6.22
-2.42
0.56
2.82
4.61
6.33
8.44
11.32
15.13
19.82
25.15
30.71
36.04
40.57
43.65
44.63
42.86
37.98
29.96
19.27
6.84
-6.04
-18.01
-27.84
-34.74
-38.49
-39.41
-38.17
-35.51
-32.01
-27.97
-23.45
-18.48
-13.14
-7.77
-2.73
1.64
5.22
8.25
11.14
14.42
18.50
23.57
29.55
36.10
42.73
48.77
53.48
56.10
55.94
52.57
45.91
36.28
24.34
11.00
-2.82
-16.22
-28.45
-38.87
-47.00
-52.53
-55.37
-55.63
-53.67
-50.00
-45.20
-39.84
-34.38
-29.14
-24.21
-19.53
-14.96
-10.40
-5.89
-1.53
2.56
6.37
10.05
13.87
18.10
22.88
28.10
33.37
38.05
41.28
42.14
39.87
34.14
25.14
13.69
1.02
-11.50
-22.64
-31.52
-37.67
-40.90
-41.28
-39.09
-34.83
-29.17
-22.98
-17.06
-12.01
-8.01
-4.81
-1.83
1.53
5.63
10.39
15.35
19.86
23.46
26.01
27.77
29.25
30.95
33.19
35.94
38.87
41.41
42.83
42.40
39.50
33.88
25.68
15.42
3.88
-8.21
-20.25
-31.78
-42.32
-51.26
-57.86
-61.49
-61.95
-59.68
-55.64
-50.99
-46.60
-42.71
-38.95
-34.62
-29.18
-22.59
-15.36
-8.34
-2.30
2.35
5.69
8.14
10.20
12.23
14.37
16.60
18.80
20.82
22.33
22.84
21.73
18.45
12.83
5.22
-3.46
-11.98
-19.20
-24.35
-27.19
-28.02
-27.44
-26.05
-24.29
-22.27
-19.84
-16.72
-12.69
-7.73
-2.10
3.79
9.46
14.51
18.60
21.52
23.20
23.76
23.54
23.08
22.94
23.56
24.94
26.66
27.96
27.94
25.94
21.69
15.39
7.64
-0.81
-9.18
-16.89
-23.51
-28.82
-32.69
-35.04
-35.82
-35.08
-32.92
-29.60
-25.48
-20.96
-16.40
-12.02
-7.86
-3.80
0.32
4.55
8.77
12.68
15.87
18.00
18.97
18.95
18.35
17.73
17.55
18.11
19.39
21.01
22.31
22.43
20.57
16.25
9.47
0.78
-8.81
-18.07
-25.86
-31.38
-34.27
-34.59
-32.74
-29.23
-24.64
-19.49
-14.23
-9.18
-4.53
-0.35
3.43
6.89
10.08
12.88
15.13
16.58
17.09
16.73
15.77
14.64
13.82
13.63
14.15
15.21
16.35
17.00
16.62
14.81
11.47
6.79
1.20
-4.79
-10.72
-16.25
-21.10
-25.03
-27.68
-28.74
-28.02
-25.59
-21.85
-17.43
-12.95
-8.91
-5.51
-2.70
-0.31
1.84
3.79
5.49
6.83
7.70
8.02
7.88
7.42
6.86
6.48
6.52
7.18
8.51
10.38
12.38
13.83
13.92
11.93
7.59
1.13
-6.60
-14.43
-21.10
-25.64
-27.51
-26.63
-23.36
-18.39
-12.54
-6.67
-1.50
2.56
5.45
7.41
8.83
10.04
11.17
12.06
12.44
12.11
11.02
9.44
7.86
6.79
6.63
7.47
9.06
10.82
12.04
12.07
10.50
7.23
2.55
-3.04
-8.89
-14.36
-18.94
-22.21
-23.94
-24.02
-22.53
-19.70
-15.96
-11.86
-7.98
-4.79
-2.53
-1.18
-0.52
-0.21
0.08
0.57
1.31
2.21
3.08
3.71
3.94
3.77
3.32
2.86
2.67
2.96
3.73
4.77
5.74
6.25
5.97
4.70
2.42
-0.73
-4.40
-8.07
-11.15
-13.11
-13.62
-12.67
-10.50
-7.56
-4.32
-1.19
1.55
3.72
5.23
6.13
6.60
6.89
7.34
8.16
9.44
10.99
12.48
13.43
13.49
12.49
10.61
8.28
6.11
4.65
4.22
4.76
5.91
7.09
7.68
7.22
5.46
2.42
-1.59
-6.08
-10.43
-14.04
-16.41
-17.34
-16.87
-15.26
-12.92
-10.29
-7.76
-5.63
-4.12
-3.31
-3.13
-3.33
-3.54
-3.37
-2.58
-1.11
0.76
2.61
3.99
4.60
4.46
3.88
3.32
3.25
3.86
5.10
6.64
8.07
9.00
9.15
8.30
6.32
3.21
-0.81
-5.26
-9.42
-12.54
-14.04
-13.73
-11.81
-8.77
-5.24
-1.80
1.09
3.19
4.45
5.01
5.13
5.06
4.99
4.99
5.04
5.08
5.08
5.05
4.99
4.86
4.59
4.16
3.66
3.30
3.30
3.79
4.64
5.39
5.45
4.28
1.65
-2.23
-6.72
-11.01
-14.38
-16.39
-16.99
-16.40
-14.95
-12.93
-10.57
-8.07
-5.67
-3.59
-2.06
-1.11
-0.63
-0.34
0.08
0.85
2.00
3.41
4.82
5.93
6.55
6.57
6.04
5.10
4.02
3.11
2.71
3.07
4.30
6.21
8.34
9.98
10.43
9.20
6.23
1.94
-2.87
-7.30
-10.54
-12.14
-12.01
-10.35
-7.60
-4.22
-0.71
2.52
5.24
7.33
8.88
10.04
10.97
11.77
12.42
12.82
12.87
12.51
11.83
11.04
10.41
10.21
10.67
11.80
13.47
15.25
16.63
17.08
16.20
13.84
10.09
5.25
-0.23
-5.90
-11.37
-16.33
-20.57
-23.89
-26.09
-26.96
-26.36
-24.36
-21.31
-17.80
-14.44
-11.64
-9.45
-7.54
-5.49
-3.02
-0.22
2.55
4.83
6.33
7.07
7.26
7.25
7.36
7.86
8.98
10.87
13.48
16.45
19.13
20.64
20.19
17.32
12.08
5.01
-2.94
-10.71
-17.29
-21.96
-24.36
-24.55
-22.86
-19.83
-16.06
-12.08
-8.34
-5.12
-2.55
-0.59
0.96
2.34
3.71
5.04
6.14
6.73
6.64
5.91
4.78
3.64
2.80
2.48
2.69
3.33
4.16
4.88
5.19
4.80
3.54
1.41
-1.39
-4.48
-7.39
-9.63
-10.83
-10.84
-9.74
-7.85
-5.63
-3.53
-1.85
-0.69
0.04
0.58
1.14
1.88
2.80
3.86
4.94
5.93
6.74
7.26
7.40
7.10
6.42
5.58
5.02
5.24
6.62
9.23
12.66
16.06
18.40
18.73
16.54
11.85
5.24
-2.38
-9.90
-16.33
-20.82
-22.89
-22.45
-19.86
-15.79
-11.13
-6.74
-3.23
-0.89
0.38
0.94
1.26
1.71
2.46
3.43
4.37
4.96
4.95
4.28
3.10
1.75
0.62
0.10
0.39
1.46
3.06
4.71
5.86
6.02
4.93
2.58
-0.71
-4.44
-7.98
-10.81
-12.58
-13.16
-12.69
-11.46
-9.78
-7.93
-6.15
-4.63
-3.52
-2.92
-2.80
-2.94
-2.97
-2.55
-1.52
0.02
1.66
2.97
3.64
3.65
3.24
2.81
2.71
3.20
4.45
6.50
9.27
12.44
15.45
17.47
17.70
15.61
11.15
4.86
-2.33
-9.38
-15.34
-19.57
-21.76
-21.87
-20.12
-16.98
-13.08
-9.14
-5.76
-3.29
-1.71
-0.68
0.23
1.37
2.78
4.19
5.15
5.23
4.25
2.42
0.21
-1.70
-2.73
-2.54
-1.09
1.37
4.43
7.50
10.02
11.35
11.07
8.95
5.14
0.21
-5.07
-9.79
-13.25
-14.96
-14.88
-13.23
-10.54
-7.44
-4.57
-2.44
-1.35
-1.28
-1.98
-3.00
-3.87
-4.24
-3.96
-3.15
-2.10
-1.11
-0.38
0.10
0.55
1.22
2.29
3.81
5.69
7.84
10.21
12.81
15.61
18.40
20.78
22.19
22.04
20.00
16.05
10.56
4.17
-2.34
-8.24
-12.96
-16.09
-17.41
-16.97
-15.01
-12.01
-8.57
-5.24
-2.39
-0.13
1.60
2.93
3.86
4.23
3.85
2.64
0.82
-1.12
-2.53
-2.82
-1.72
0.66
3.84
7.18
9.97
11.70
12.04
10.91
8.46
5.01
0.95
-3.32
-7.46
-11.21
-14.40
-16.84
-18.39
-18.96
-18.55
-17.34
-15.67
-13.91
-12.37
-11.17
-10.26
-9.49
-8.69
-7.77
-6.68
-5.44
-4.05
-2.48
-0.64
1.54
4.12
7.07
10.30
13.68
17.06
20.35
23.41
26.00
27.68
27.79
25.66
20.88
13.59
4.59
-4.83
-13.32
-19.86
-24.00
-25.79
-25.61
-23.86
-20.88
-17.03
-12.71
-8.52
-5.03
-2.62
-1.32
-0.78
-0.46
0.14
1.30
3.01
5.04
7.11
8.98
10.61
12.05
13.43
14.81
16.18
17.40
18.27
18.61
18.28
17.26
15.54
13.06
9.74
5.43
0.10
-6.03
-12.43
-18.33
-22.96
-25.79
-26.69
-25.98
-24.30
-22.31
-20.53
-19.14
-18.07
-17.07
-15.92
-14.49
-12.76
-10.78
-8.55
-6.03
-3.13
0.23
4.02
8.04
12.01
15.67
18.87
21.65
24.18
26.56
28.60
29.80
29.48
27.03
22.26
15.50
7.52
-0.74
-8.51
-15.25
-20.67
-24.51
-26.56
-26.66
-24.93
-21.92
-18.46
-15.35
-13.04
-11.36
-9.72
-7.45
-4.24
-0.34
3.59
6.84
9.05
10.31
11.08
11.84
12.83
14.00
15.08
15.81
16.00
15.51
14.23
11.98
8.61
4.04
-1.57
-7.84
-14.16
-19.84
-24.23
-26.86
-27.58
-26.59
-24.44
-21.87
-19.58
-18.07
-17.40
-17.21
-16.84
-15.60
-12.98
-8.89
-3.66
2.05
7.56
12.30
16.05
18.80
20.71
21.92
22.54
22.61
22.31
21.90
21.68
21.89
22.55
23.31
23.60
22.81
20.43
16.35
10.80
4.34
-2.44
-9.00
-14.96
-20.05
-24.01
-26.55
-27.40
-26.43
-23.70
-19.48
-14.12
-7.98
-1.36
5.41
11.92
17.70
22.27
25.33
26.85
27.14
26.73
26.18
25.95
26.23
26.95
27.77
28.18
27.66
25.76
22.24
17.14
10.77
3.57
-3.97
-11.45
-18.54
-25.04
-30.79
-35.63
-39.46
-42.13
-43.50
-43.42
-41.78
-38.52
-33.72
-27.59
-20.48
-12.86
-5.26
1.78
7.81
12.53
15.82
17.77
18.66
18.83
18.68
18.57
18.73
19.32
20.34
21.55
22.43
22.28
20.32
16.08
9.51
1.11
-8.17
-17.26
-25.30
-31.74
-36.38
-39.16
-39.94
-38.47
-34.52
-28.13
-19.72
-10.14
-0.42
8.54
16.17
22.27
26.88
30.10
31.97
32.50
31.78
30.08
27.92
25.92
24.54
23.95
23.87
23.68
22.65
20.17
15.91
9.93
2.58
-5.64
-14.22
-22.68
-30.62
-37.64
-43.32
-47.20
-48.85
-47.98
-44.57
-38.93
-31.67
-23.65
-15.70
-8.45
-2.20
3.06
7.48
11.19
14.19
16.36
17.58
17.83
17.36
16.51
15.68
15.19
15.23
15.88
17.18
19.11
21.48
23.87
25.55
25.62
23.24
17.95
9.85
-0.38
-11.61
-22.55
-31.95
-38.76
-42.21
-41.92
-37.92
-30.79
-21.55
-11.55
-2.11
5.86
12.04
16.68
20.38
23.64
26.64
29.15
30.75
31.10
30.21
28.46
26.49
24.96
24.30
24.67
25.89
27.51
28.89
29.35
28.21
24.99
19.45
11.75
2.30
-8.20
-18.91
-28.88
-37.16
-42.90
-45.54
-44.97
-41.59
-36.21
-29.81
-23.27
-17.17
-11.77
-7.09
-3.00
0.67
4.09
7.35
10.49
13.43
15.97
17.88
19.07
19.60
19.81
20.14
21.08
22.94
25.77
29.27
32.84
35.62
36.68
35.16
30.53
22.76
12.43
0.63
-11.24
-21.82
-30.07
-35.51
-38.16
-38.33
-36.43
-32.77
-27.63
-21.34
-14.44
-7.60
-1.43
3.68
7.76
11.07
13.88
16.21
17.79
18.27
17.51
15.84
13.96
12.72
12.77
14.33
17.11
20.49
23.67
25.85
26.39
24.80
20.89
14.82
7.10
-1.51
-10.16
-18.13
-24.94
-30.35
-34.25
-36.56
-37.18
-36.05
-33.27
-29.14
-24.16
-18.94
-13.99
-9.53
-5.57
-1.93
1.56
4.94
8.07
10.74
12.82
14.33
15.46
16.52
17.85
19.67
22.02
24.78
27.60
29.93
31.15
30.69
28.24
23.91
18.16
11.66
5.01
-1.38
-7.41
-13.09
-18.37
-23.06
-26.76
-29.07
-29.72
-28.63
-25.98
-22.08
-17.27
-11.86
-6.14
-0.39
5.04
9.75
13.35
15.62
16.54
16.41
15.74
15.16
15.19
16.06
17.60
19.25
20.24
19.81
17.52
13.35
7.74
1.41
-4.95
-10.87
-16.16
-20.82
-24.84
-28.05
-30.12
-30.72
-29.74
-27.40
-24.25
-20.94
-17.98
-15.55
-13.46
-11.32
-8.70
-5.36
-1.37
2.96
7.21
11.02
14.18
16.66
18.60
20.14
21.46
22.74
24.15
25.82
27.77
29.76
31.33
31.85
30.69
27.52
22.38
15.73
8.21
0.54
-6.77
-13.34
-18.96
-23.42
-26.48
-27.92
-27.60
-25.59
-22.15
-17.76
-12.89
-7.94
-3.17
1.30
5.33
8.72
11.22
12.62
12.90
12.38
11.62
11.23
11.63
12.84
14.38
15.50
15.37
13.44
9.56
4.01
-2.62
-9.66
-16.46
-22.53
-27.55
-31.33
-33.76
-34.79
-34.42
-32.76
-30.00
-26.50
-22.65
-18.86
-15.45
-12.57
-10.20
-8.22
-6.41
-4.58
-2.59
-0.44
1.84
4.14
6.34
8.34
10.08
11.52
12.63
13.39
13.86
14.19
14.65
15.54
16.98
18.78
20.38
20.98
19.85
16.54
11.12
4.08
-3.78
-11.62
-18.63
-24.18
-27.77
-29.07
-28.04
-24.92
-20.35
-15.15
-10.12
-5.83
-2.44
0.23
2.49
4.61
6.65
8.41
9.60
9.95
9.41
8.14
6.45
4.76
3.45
2.87
3.24
4.64
6.91
9.63
12.12
13.57
13.30
10.87
6.31
0.06
-7.15
-14.43
-20.91
-25.90
-28.93
-29.84
-28.82
-26.27
-22.82
-19.04
-15.47
-12.41
-9.99
-8.13
-6.58
-5.07
-3.33
-1.22
1.18
3.56
5.50
6.61
6.72
6.01
4.95
4.16
4.22
5.44
7.81
11.01
14.44
17.37
19.00
18.68
16.02
11.07
4.40
-2.98
-9.88
-15.18
-18.16
-18.61
-16.81
-13.38
-9.02
-4.41
-0.04
3.79
6.91
9.32
11.08
12.35
13.29
13.99
14.45
14.50
14.01
12.93
11.47
10.12
9.51
10.14
12.19
15.36
18.96
22.17
24.22
24.60
23.06
19.52
14.03
6.75
-1.91
-11.25
-20.29
-27.94
-33.27
-35.80
-35.62
-33.32
-29.75
-25.72
-21.83
-18.34
-15.34
-12.78
-10.63
-8.86
-7.40
-6.16
-5.03
-3.86
-2.51
-0.89
1.10
3.48
6.14
8.89
11.49
13.75
15.61
17.15
18.51
19.64
20.30
20.03
18.33
14.90
9.78
3.37
-3.65
-10.48
-16.31
-20.51
-22.63
-22.55
-20.45
-16.81
-12.34
-7.76
-3.67
-0.37
2.13
4.03
5.55
6.83
7.81
8.35
8.29
7.63
6.60
5.61
5.09
5.38
6.60
8.62
11.14
13.73
15.99
17.51
17.91
16.89
14.22
9.84
3.98
-2.93
-10.23
-17.18
-23.15
-27.60
-30.23
-30.92
-29.79
-27.16
-23.54
-19.50
-15.62
-12.31
-9.81
-8.14
-7.15
-6.60
-6.20
-5.66
-4.74
-3.31
-1.31
1.14
3.85
6.61
9.24
11.65
13.87
15.98
18.04
20.01
21.67
22.62
22.38
20.57
17.03
11.91
5.64
-1.22
-8.05
-14.22
-19.12
-22.23
-23.16
-21.86
-18.64
-14.17
-9.29
-4.79
-1.15
1.50
3.32
4.58
5.49
6.14
6.52
6.58
6.37
6.01
5.70
5.67
6.11
7.15
8.81
11.00
13.49
15.92
17.80
18.58
17.75
14.97
10.28
4.06
-2.95
-9.88
-15.93
-20.54
-23.48
-24.82
-24.85
-23.95
-22.49
-20.75
-18.95
-17.21
-15.62
-14.25
-13.14
-12.29
-11.64
-11.06
-10.32
-9.24
-7.68
-5.63
-3.22
-0.64
1.87
4.12
6.04
7.65
9.08
10.43
11.74
12.84
13.37
12.97
11.38
8.63
5.07
1.23
-2.39
-5.48
-7.98
-9.95
-11.39
-12.20
-12.19
-11.20
-9.26
-6.61
-3.70
-1.00
1.13
2.53
3.22
3.43
3.49
3.74
4.51
5.90
7.82
9.93
11.76
12.91
13.21
12.74
11.88
11.07
10.68
10.92
11.80
13.22
14.90
16.46
17.36
17.01
14.87
10.70
4.68
-2.51
-9.92
-16.52
-21.52
-24.48
-25.34
-24.35
-22.00
-18.95
-15.92
-13.58
-12.35
-12.24
-12.80
-13.28
-12.90
-11.15
-7.98
-3.77
0.86
5.33
9.24
12.43
14.87
16.58
17.58
17.93
17.82
17.57
17.56
18.04
18.93
19.78
19.85
18.37
14.91
9.48
2.64
-4.72
-11.64
-17.30
-21.20
-23.14
-23.20
-21.71
-19.18
-16.19
-13.26
-10.67
-8.39
-6.10
-3.42
-0.11
3.74
7.71
11.27
13.98
15.65
16.38
16.44
16.15
15.74
15.36
15.12
15.09
15.34
15.78
16.19
16.13
15.05
12.44
8.01
1.89
-5.43
-13.15
-20.39
-26.36
-30.55
-32.80
-33.23
-32.21
-30.24
-27.84
-25.43
-23.25
-21.29
-19.31
-16.94
-13.83
-9.86
-5.26
-0.49
3.83
7.21
9.48
10.76
11.40
11.77
12.14
12.60
13.15
13.78
14.50
15.27
15.92
16.13
15.47
13.56
10.28
5.79
0.50
-5.08
-10.44
-15.18
-18.99
-21.59
-22.73
-22.28
-20.26
-16.94
-12.76
-8.19
-3.60
0.89
5.25
9.47
13.38
16.61
18.75
19.53
18.99
17.49
15.64
13.98
12.87
12.38
12.39
12.71
13.13
13.46
13.46
12.83
11.24
8.42
4.29
-1.04
-7.29
-14.13
-21.12
-27.82
-33.69
-38.16
-40.66
-40.82
-38.60
-34.33
-28.65
-22.34
-16.10
-10.41
-5.46
-1.20
2.50
5.74
8.51
10.73
12.31
13.24
13.61
13.64
13.51
13.42
13.50
13.83
14.49
15.49
16.74
17.97
18.72
18.39
16.46
12.63
6.94
-0.21
-8.13
-16.02
-23.00
-28.28
-31.17
-31.22
-28.34
-22.87
-15.63
-7.72
-0.26
5.88
10.31
13.15
14.87
16.00
16.94
17.77
18.26
18.09
17.04
15.12
12.63
10.04
7.86
6.40
5.78
5.92
6.61
7.55
8.37
8.59
7.68
5.26
1.19
-4.29
-10.54
-16.67
-21.77
-25.14
-26.38
-25.47
-22.73
-18.67
-13.93
-9.12
-4.78
-1.29
1.16
2.58
3.17
3.22
3.11
3.16
3.61
4.50
5.75
7.14
8.43
9.41
9.98
10.12
9.92
9.49
8.99
8.58
8.44
8.68
9.32
10.23
11.12
11.62
11.35
10.02
7.54
4.03
-0.17
-4.53
-8.44
-11.33
-12.77
-12.58
-10.88
-8.03
-4.51
-0.84
2.58
5.51
7.89
9.81
11.40
12.77
13.93
14.80
15.26
15.14
14.36
12.95
11.07
9.01
7.16
5.99
5.90
7.11
9.52
12.64
15.68
17.69
17.90
15.81
11.44
5.22
-2.03
-9.29
-15.56
-20.05
-22.32
-22.35
-20.54
-17.52
-14.02
-10.70
-7.97
-6.05
-4.85
-4.13
-3.52
-2.71
-1.48
0.10
1.79
3.18
3.95
4.02
3.62
3.28
3.55
4.87
7.36
10.83
14.89
19.11
23.08
26.42
28.71
29.48
28.31
24.99
19.69
12.96
5.54
-1.84
-8.62
-14.43
-18.95
-21.81
-22.64
-21.23
-17.79
-12.97
-7.72
-2.95
0.81
3.44
5.18
6.30
6.94
7.06
6.57
5.56
4.34
3.36
3.02
3.52
4.78
6.56
8.59
10.66
12.60
14.15
14.87
14.23
11.70
7.03
0.37
-7.70
-16.27
-24.29
-30.78
-34.99
-36.52
-35.40
-32.08
-27.32
-22.05
-17.17
-13.36
-10.89
-9.61
-9.01
-8.40
-7.13
-4.82
-1.47
2.53
6.64
10.30
13.24
15.42
17.03
18.28
19.36
20.39
21.43
22.47
23.32
23.59
22.72
20.18
15.66
9.30
1.63
-6.53
-14.33
-21.01
-26.02
-29.00
-29.80
-28.49
-25.44
-21.22
-16.47
-11.69
-7.11
-2.64
1.86
6.47
10.97
14.92
17.84
19.38
19.55
18.65
17.19
15.65
14.37
13.49
13.03
12.95
13.15
13.48
13.66
13.25
11.72
8.60
3.66
-2.97
-10.77
-18.93
-26.48
-32.56
-36.58
-38.33
-38.00
-36.05
-33.04
-29.41
-25.40
-21.11
-16.56
-11.85
-7.17
-2.79
1.08
4.39
7.20
9.60
11.66
13.31
14.42
14.91
14.89
14.65
14.57
14.98
15.92
17.17
18.22
18.51
17.55
15.13
11.27
6.22
0.38
-5.83
-11.98
-17.61
-22.28
-25.51
-26.91
-26.27
-23.62
-19.29
-13.86
-7.98
-2.22
3.08
7.79
11.94
15.53
18.43
20.36
21.00
20.22
18.18
15.38
12.51
10.26
9.10
9.23
10.47
12.40
14.43
15.84
15.91
14.06
9.94
3.60
-4.47
-13.39
-22.06
-29.40
-34.56
-37.07
-36.88
-34.35
-30.08
-24.81
-19.26
-14.05
-9.56
-5.95
-3.13
-0.85
1.18
3.16
5.14
6.99
8.51
9.53
9.99
9.97
9.67
9.31
9.10
9.19
9.67
10.56
11.73
12.89
13.55
13.16
11.22
7.51
2.16
-4.36
-11.35
-18.03
-23.62
-27.39
-28.75
-27.38
-23.37
-17.32
-10.25
-3.33
2.51
6.84
9.76
11.74
13.20
14.36
15.09
15.15
14.31
12.66
10.50
8.28
6.40
5.11
4.48
4.51
5.16
6.34
7.77
8.96
9.23
7.80
4.17
-1.72
-9.29
-17.40
-24.70
-29.90
-32.17
-31.33
-27.80
-22.48
-16.44
-10.67
-5.85
-2.28
0.12
1.67
2.74
3.60
4.42
5.25
6.10
6.97
7.86
8.72
9.46
9.94
10.07
9.94
9.76
9.82
10.36
11.34
12.49
13.29
13.24
11.94
9.26
5.25
0.18
-5.57
-11.50
-17.00
-21.41
-24.08
-24.55
-22.68
-18.77
-13.43
-7.54
-1.90
2.86
6.43
8.87
10.41
11.37
11.98
12.32
12.30
11.79
10.75
9.31
7.76
6.48
5.74
5.65
6.07
6.65
6.97
6.59
5.16
2.46
-1.56
-6.72
-12.64
-18.67
-24.06
-28.04
-30.01
-29.71
-27.29
-23.30
-18.50
-13.75
-9.69
-6.68
-4.73
-3.55
-2.76
-1.98
-0.97
0.29
1.67
2.95
3.93
4.48
4.57
4.27
3.74
3.20
2.86
2.93
3.51
4.57
5.83
6.83
7.01
5.87
3.18
-0.83
-5.57
-10.14
-13.63
-15.34
-14.94
-12.57
-8.71
-4.05
0.72
5.03
8.52
11.04
12.65
13.54
13.97
14.19
14.33
14.40
14.26
13.64
12.34
10.27
7.60
4.75
2.24
0.54
-0.15
0.04
0.74
1.46
1.83
1.64
0.81
-0.71
-2.99
-6.09
-9.88
-14.00
-17.85
-20.75
-22.17
-21.91
-20.11
-17.18
-13.61
-9.88
-6.40
-3.51
-1.40
-0.13
0.47
0.67
0.80
1.10
1.71
2.61
3.69
4.79
5.74
6.37
6.53
6.24
5.64
5.12
5.08
5.84
7.43
9.50
11.36
12.24
11.52
8.91
4.61
-0.83
-6.61
-11.86
-15.77
-17.70
-17.32
-14.68
-10.29
-5.04
0.07
4.19
6.91
8.30
8.82
8.96
9.10
9.33
9.57
9.64
9.38
8.72
7.58
5.99
4.02
1.93
0.09
-1.04
-1.15
-0.21
1.51
3.39
4.73
4.87
3.40
0.32
-3.97
-8.77
-13.20
-16.46
-17.99
-17.67
-15.78
-12.93
-9.82
-7.02
-4.90
-3.52
-2.75
-2.41
-2.28
-2.23
-2.16
-1.98
-1.67
-1.27
-0.85
-0.54
-0.36
-0.22
0.07
0.79
2.08
3.94
6.15
8.36
10.14
11.11
11.00
9.69
7.25
3.91
0.12
-3.57
-6.55
-8.27
-8.39
-6.88
-4.05
-0.46
3.25
6.54
9.13
11.04
12.48
13.67
14.75
15.62
16.13
16.07
15.37
14.08
12.37
10.53
8.79
7.38
6.50
6.29
6.85
8.13
9.94
11.87
13.39
13.88
12.87
10.08
5.57
-0.37
-7.20
-14.27
-20.91
-26.40
-30.16
-31.74
-31.03
-28.33
-24.33
-19.99
-16.21
-13.63
-12.42
-12.32
-12.82
-13.39
-13.67
-13.48
-12.76
-11.52
-9.73
-7.39
-4.59
-1.55
1.39
3.90
5.78
7.06
7.98
8.75
9.43
9.82
9.50
8.05
5.30
1.49
-2.73
-6.55
-9.23
-10.32
-9.76
-7.85
-5.12
-2.12
0.57
2.59
3.75
4.17
4.17
4.23
4.81
6.16
8.24
10.73
13.14
14.95
15.82
15.61
14.41
12.49
10.21
7.94
6.01
4.62
3.85
3.58
3.55
3.34
2.48
0.65
-2.30
-6.18
-10.62
-15.09
-19.03
-21.99
-23.70
-24.09
-23.34
-21.83
-20.03
-18.33
-16.84
-15.41
-13.67
-11.22
-7.87
-3.74
0.77
5.16
8.99
11.97
13.99
15.10
15.40
15.10
14.44
13.66
12.95
12.43
12.07
11.78
11.36
10.60
9.25
7.10
4.04
0.13
-4.31
-8.81
-12.82
-15.83
-17.58
-17.96
-17.08
-15.12
-12.27
-8.73
-4.72
-0.45
3.86
7.99
11.80
15.16
17.94
20.05
21.36
21.81
21.40
20.25
18.53
16.48
14.26
12.04
9.96
8.15
6.76
5.92
5.54
5.34
4.81
3.35
0.49
-3.92
-9.66
-16.15
-22.59
-28.14
-32.01
-33.63
-32.73
-29.42
-24.21
-17.89
-11.37
-5.45
-0.61
3.06
5.71
7.62
9.02
10.00
10.62
10.91
10.97
10.93
10.90
10.90
10.87
10.74
10.52
10.33
10.38
10.80
11.56
12.36
12.74
12.13
10.08
6.38
1.10
-5.37
-12.40
-19.09
-24.42
-27.40
-27.35
-24.16
-18.39
-11.16
-3.79
2.58
7.43
10.81
13.18
15.00
16.46
17.37
17.40
16.31
14.22
11.57
8.94
6.80
5.29
4.27
3.49
2.81
2.29
2.07
2.22
2.52
2.46
1.36
-1.35
-5.82
-11.69
-18.15
-24.13
-28.61
-30.83
-30.49
-27.72
-23.06
-17.26
-11.14
-5.37
-0.46
3.35
6.08
7.91
9.10
9.90
10.50
11.00
11.46
11.90
12.37
12.87
13.40
13.97
14.62
15.44
16.51
17.77
18.89
19.25
18.09
14.70
8.83
0.74
-8.69
-18.25
-26.64
-32.74
-35.82
-35.61
-32.31
-26.57
-19.33
-11.74
-4.76
0.97
5.29
8.46
10.96
13.19
15.26
17.08
18.41
19.08
19.05
18.50
17.63
16.70
15.87
15.28
14.98
15.00
15.20
15.31
14.92
13.52
10.67
6.16
0.11
-7.01
-14.48
-21.47
-27.21
-31.18
-33.13
-33.09
-31.27
-27.97
-23.55
-18.41
-13.04
-7.97
-3.68
-0.45
1.77
3.31
4.62
6.08
7.83
9.76
11.64
13.25
14.55
15.65
16.69
17.83
19.11
20.52
22.02
23.43
24.43
24.50
22.99
19.35
13.43
5.56
-3.49
-12.71
-21.08
-27.76
-32.16
-33.89
-32.84
-29.19
-23.49
-16.60
-9.52
-3.18
1.92
5.71
8.50
10.75
12.84
14.86
16.67
17.93
18.37
17.93
16.92
15.86
15.37
15.82
17.20
19.02
20.50
20.80
19.27
15.63
9.94
2.62
-5.76
-14.50
-22.87
-30.17
-35.74
-39.11
-39.99
-38.38
-34.61
-29.36
-23.48
-17.80
-12.96
-9.19
-6.29
-3.83
-1.31
1.58
4.84
8.15
11.15
13.47
15.01
15.90
16.48
17.11
18.12
19.68
21.76
24.15
26.41
27.92
27.92
25.79
21.18
14.28
5.82
-3.13
-11.42
-18.18
-22.94
-25.66
-26.51
-25.77
-23.69
-20.53
-16.60
-12.32
-8.09
-4.21
-0.74
2.41
5.44
8.41
11.25
13.70
15.51
16.56
16.98
17.11
17.39
18.18
19.66
21.71
23.92
25.60
25.93
24.19
19.97
13.36
4.96
-4.28
-13.38
-21.55
-28.37
-33.66
-37.32
-39.20
-39.18
-37.22
-33.63
-29.01
-24.12
-19.58
-15.67
-12.25
-9.01
-5.60
-1.94
1.78
5.21
8.06
10.20
11.73
12.91
14.02
15.31
16.95
19.01
21.42
23.97
26.14
27.23
26.48
23.34
17.79
10.35
2.00
-6.19
-13.35
-19.01
-23.06
-25.55
-26.53
-25.96
-23.81
-20.23
-15.65
-10.72
-6.04
-1.92
1.70
5.18
8.81
12.54
15.93
18.31
19.14
18.35
16.41
14.20
12.59
12.16
13.04
14.95
17.34
19.53
20.85
20.70
18.61
14.44
8.39
0.97
-7.16
-15.33
-22.98
-29.65
-34.94
-38.52
-40.14
-39.70
-37.39
-33.61
-28.96
-24.05
-19.39
-15.29
-11.80
-8.79
-6.04
-3.35
-0.64
2.07
4.65
6.96
8.96
10.61
11.94
13.00
13.86
14.69
15.72
17.16
19.01
20.96
22.42
22.69
21.20
17.70
12.30
5.45
-2.23
-9.99
-17.05
-22.62
-26.07
-27.07
-25.72
-22.54
-18.36
-13.95
-9.86
-6.25
-3.00
0.15
3.34
6.50
9.41
11.76
13.37
14.13
14.16
13.63
12.85
12.14
11.90
12.47
14.03
16.46
19.30
21.78
23.01
22.21
18.89
12.99
4.87
-4.73
-14.78
-24.17
-31.85
-37.09
-39.63
-39.70
-37.93
-35.11
-31.90
-28.69
-25.54
-22.29
-18.66
-14.44
-9.67
-4.57
0.34
4.49
7.39
8.83
9.07
8.78
8.94
10.51
14.17
20.07
27.74
36.15
43.95
49.69
52.17
50.61
44.85
35.31
22.91
8.97
-5.10
-17.91
-28.30
-35.50
-39.20
-39.59
-37.26
-33.05
-27.82
-22.22
-16.59
-10.98
-5.33
0.33
5.71
10.18
13.03
13.77
12.45
9.79
7.07
5.76
6.98
11.17
17.88
25.90
33.63
39.52
42.46
41.95
38.03
31.19
22.10
11.49
0.08
-11.44
-22.35
-32.00
-39.81
-45.44
-48.74
-49.81
-48.92
-46.44
-42.77
-38.28
-33.27
-27.99
-22.61
-17.32
-12.35
-7.95
-4.30
-1.33
1.31
4.27
8.19
13.54
20.34
28.24
36.61
44.74
51.98
57.75
61.45
62.48
60.28
54.55
45.37
33.31
19.38
4.76
-9.35
-22.00
-32.47
-40.35
-45.41
-47.61
-47.15
-44.48
-40.26
-35.26
-30.08
-25.03
-20.12
-15.19
-10.10
-4.93
0.06
4.60
8.55
12.07
15.50
19.22
23.48
28.31
33.47
38.57
43.04
46.27
47.57
46.38
42.29
35.23
25.46
13.53
0.23
-13.58
-27.01
-39.15
-49.13
-56.21
-59.92
-60.26
-57.80
-53.55
-48.69
-44.15
-40.27
-36.75
-32.84
-27.69
-20.83
-12.37
-2.89
6.77
15.90
24.07
31.20
37.43
42.95
47.92
52.42
56.43
59.79
62.13
62.86
61.24
56.65
48.81
37.92
24.67
10.11
-4.64
-18.53
-30.62
-40.19
-46.72
-50.03
-50.38
-48.47
-45.23
-41.42
-37.31
-32.57
-26.50
-18.50
-8.60
2.37
13.03
21.94
28.18
31.71
33.27
34.00
34.99
36.82
39.46
42.36
44.72
45.74
44.80
41.65
36.24
28.81
19.74
9.47
-1.50
-12.61
-23.34
-33.17
-41.70
-48.63
-53.90
-57.59
-59.89
-60.98
-60.83
-59.18
-55.57
-49.53
-40.85
-29.82
-17.27
-4.46
7.31
17.10
24.57
29.97
34.00
37.44
40.87
44.52
48.20
51.44
53.58
53.99
52.13
47.70
40.72
31.51
20.60
8.64
-3.72
-15.89
-27.29
-37.38
-45.58
-51.44
-54.68
-55.24
-53.32
-49.18
-43.09
-35.20
-25.62
-14.54
-2.40
10.01
21.56
31.03
37.39
40.17
39.67
36.90
33.32
30.36
28.99
29.47
31.35
33.73
35.63
36.29
35.26
32.34
27.44
20.48
11.43
0.44
-12.03
-25.17
-37.93
-49.28
-58.36
-64.67
-68.00
-68.35
-65.83
-60.65
-53.20
-44.08
-33.97
-23.57
-13.41
-3.78
5.13
13.17
20.08
25.58
29.47
31.86
33.19
34.12
35.35
37.27
39.90
42.78
45.27
46.63
46.24
43.72
38.92
31.93
22.94
12.26
0.28
-12.47
-25.27
-37.19
-47.06
-53.77
-56.47
-54.88
-49.42
-41.17
-31.52
-21.75
-12.72
-4.69
2.46
8.96
14.84
19.81
23.42
25.32
25.53
24.50
23.04
21.95
21.82
22.83
24.75
27.09
29.27
30.72
30.93
29.48
26.01
20.24
12.07
1.63
-10.56
-23.54
-36.02
-46.54
-53.85
-57.27
-56.78
-53.08
-47.27
-40.60
-34.03
-28.06
-22.73
-17.70
-12.58
-7.09
-1.33
4.35
9.47
13.65
16.82
19.23
21.31
23.54
26.26
29.65
33.66
37.96
41.89
44.49
44.66
41.50
34.61
24.27
11.44
-2.51
-16.14
-28.17
-37.64
-43.97
-46.87
-46.45
-43.17
-37.79
-31.27
-24.48
-18.01
-11.99
-6.17
-0.22
6.01
12.20
17.61
21.32
22.70
21.76
19.24
16.37
14.37
14.02
15.32
17.64
19.96
21.28
20.92
18.59
14.30
8.26
0.78
-7.71
-16.59
-25.06
-32.29
-37.55
-40.42
-40.93
-39.43
-36.48
-32.68
-28.52
-24.36
-20.41
-16.66
-12.99
-9.18
-5.02
-0.42
4.46
9.31
13.74
17.45
20.39
22.74
24.85
27.12
29.82
33.01
36.43
39.53
41.44
41.18
37.95
31.41
21.92
10.49
-1.52
-12.76
-22.28
-29.61
-34.69
-37.59
-38.31
-36.79
-33.06
-27.44
-20.67
-13.66
-7.25
-1.83
2.70
6.76
10.70
14.52
17.74
19.75
20.15
19.10
17.32
15.81
15.40
16.43
18.61
21.15
23.04
23.40
21.62
17.53
11.37
3.74
-4.50
-12.40
-19.19
-24.42
-28.03
-30.33
-31.74
-32.65
-33.24
-33.45
-33.17
-32.23
-30.62
-28.41
-25.71
-22.57
-18.89
-14.55
-9.53
-4.05
1.46
6.46
10.52
13.52
15.64
17.26
18.74
20.33
22.07
23.92
25.79
27.57
29.04
29.81
29.35
27.17
23.04
17.12
9.94
2.24
-5.29
-12.13
-17.95
-22.47
-25.42
-26.52
-25.72
-23.22
-19.61
-15.53
-11.51
-7.71
-3.91
0.16
4.61
9.13
13.11
15.91
17.18
17.07
16.16
15.28
15.13
16.04
17.91
20.20
22.19
23.19
22.72
20.66
17.14
12.52
7.19
1.46
-4.47
-10.51
-16.56
-22.44
-27.85
-32.43
-35.84
-37.88
-38.52
-37.95
-36.46
-34.31
-31.67
-28.57
-24.93
-20.69
-15.91
-10.81
-5.77
-1.22
2.47
5.10
6.68
7.47
7.87
8.38
9.43
11.33
14.15
17.64
21.23
24.13
25.58
25.05
22.41
17.96
12.29
6.04
-0.25
-6.22
-11.62
-16.15
-19.47
-21.24
-21.32
-19.91
-17.55
-14.90
-12.50
-10.50
-8.65
-6.53
-3.89
-0.86
2.05
4.19
5.13
4.85
3.77
2.58
1.97
2.41
4.09
6.94
10.62
14.63
18.33
21.05
22.24
21.55
18.91
14.51
8.73
2.03
-5.07
-12.03
-18.34
-23.54
-27.37
-29.70
-30.65
-30.42
-29.26
-27.38
-24.89
-21.79
-18.06
-13.75
-9.04
-4.39
-0.35
2.52
3.95
4.04
3.37
2.80
3.22
5.30
9.30
14.95
21.59
28.24
33.82
37.36
38.16
35.97
31.02
23.95
15.64
6.97
-1.32
-8.77
-15.12
-20.21
-23.95
-26.20
-26.92
-26.21
-24.36
-21.81
-18.96
-16.06
-13.13
-10.08
-6.83
-3.50
-0.43
1.95
3.31
3.72
3.61
3.78
5.10
8.17
13.08
19.31
25.90
31.64
35.49
36.83
35.52
31.87
26.43
19.76
12.35
4.54
-3.40
-11.16
-18.38
-24.65
-29.60
-33.02
-34.89
-35.36
-34.71
-33.17
-30.92
-28.11
-24.89
-21.48
-18.12
-15.02
-12.26
-9.72
-7.12
-4.18
-0.69
3.41
7.99
12.80
17.57
22.09
26.25
29.98
33.22
35.76
37.24
37.12
34.87
30.18
23.17
14.39
4.79
-4.59
-12.80
-19.18
-23.39
-25.39
-25.34
-23.69
-21.05
-18.20
-15.79
-14.23
-13.41
-12.77
-11.47
-8.82
-4.61
0.74
6.26
10.87
13.80
14.97
15.02
15.03
16.04
18.59
22.56
27.20
31.47
34.29
34.93
33.00
28.51
21.80
13.47
4.28
-4.95
-13.56
-21.12
-27.50
-32.82
-37.29
-41.02
-44.02
-46.16
-47.31
-47.37
-46.29
-44.00
-40.33
-35.12
-28.21
-19.77
-10.36
-0.90
7.55
14.18
18.75
21.60
23.45
25.03
26.74
28.61
30.40
31.83
32.71
32.94
32.34
30.68
27.66
23.20
17.51
11.12
4.64
-1.46
-7.10
-12.46
-17.77
-23.02
-27.83
-31.59
-33.66
-33.64
-31.49
-27.46
-21.99
-15.49
-8.32
-0.81
6.69
13.70
19.68
24.14
26.79
27.72
27.37
26.48
25.84
26.03
27.25
29.21
31.30
32.72
32.79
31.08
27.51
22.29
15.80
8.49
0.72
-7.22
-15.15
-22.89
-30.28
-37.04
-42.84
-47.24
-49.78
-50.10
-48.07
-43.84
-37.87
-30.81
-23.34
-16.01
-9.17
-2.99
2.43
6.98
10.48
12.80
13.89
13.91
13.26
12.46
12.04
12.41
13.67
15.63
17.77
19.39
19.84
18.69
15.86
11.65
6.55
1.11
-4.28
-9.33
-13.82
-17.48
-19.96
-20.95
-20.23
-17.82
-13.98
-9.15
-3.84
1.45
6.32
10.47
13.76
16.29
18.26
19.95
21.57
23.21
24.77
26.00
26.59
26.22
24.76
22.32
19.33
16.41
14.15
12.84
12.32
12.03
11.23
9.44
6.54
2.90
-0.88
-4.28
-7.01
-9.18
-11.12
-13.22
-15.73
-18.66
-21.77
-24.71
-27.11
-28.66
-29.24
-28.84
-27.59
-25.67
-23.33
-20.80
-18.24
-15.67
-12.99
-10.05
-6.80
-3.36
-0.07
2.62
4.30
4.81
4.25
2.99
1.61
0.68
0.76
2.20
5.03
8.95
13.33
17.38
20.33
21.68
21.24
19.15
15.75
11.37
6.37
1.04
-4.22
-8.95
-12.59
-14.64
-14.82
-13.18
-10.20
-6.57
-3.04
-0.11
2.10
3.92
5.85
8.36
11.53
14.99
17.93
19.43
18.76
15.78
11.04
5.74
1.37
-0.70
0.24
4.10
9.98
16.47
22.13
25.83
26.97
25.49
21.70
16.18
9.58
2.59
-4.17
-10.20
-15.20
-19.09
-21.95
-23.91
-25.09
-25.51
-25.15
-23.96
-22.04
-19.58
-16.86
-14.18
-11.74
-9.56
-7.51
-5.40
-3.17
-0.97
0.81
1.78
1.74
0.91
-0.16
-0.68
0.02
2.26
5.94
10.51
15.19
19.10
21.45
21.77
19.91
16.17
11.16
5.68
0.51
-3.79
-7.02
-9.28
-10.88
-12.18
-13.41
-14.61
-15.66
-16.40
-16.69
-16.56
-16.10
-15.37
-14.30
-12.71
-10.31
-6.92
-2.55
2.47
7.64
12.36
16.13
18.58
19.53
18.97
17.09
14.26
11.06
8.12
6.03
5.11
5.29
6.18
7.13
7.47
6.72
4.68
1.49
-2.44
-6.59
-10.42
-13.49
-15.59
-16.72
-17.13
-17.23
-17.48
-18.24
-19.56
-21.15
-22.41
-22.61
-21.18
-17.91
-13.04
-7.12
-0.81
5.33
10.94
15.73
19.37
21.38
21.24
18.64
13.77
7.46
1.01
-4.14
-6.95
-7.03
-4.76
-0.96
3.40
7.51
10.83
13.06
14.04
13.67
11.95
9.01
5.10
0.63
-3.98
-8.29
-11.93
-14.57
-15.96
-15.92
-14.44
-11.69
-8.01
-3.86
0.25
3.90
6.82
8.93
10.32
11.13
11.52
11.69
11.92
12.57
13.96
16.20
18.97
21.54
22.83
21.85
18.04
11.50
3.03
-6.09
-14.54
-21.20
-25.43
-27.13
-26.58
-24.30
-20.89
-16.90
-12.85
-9.16
-6.18
-4.13
-3.07
-2.89
-3.37
-4.21
-5.21
-6.30
-7.49
-8.78
-10.09
-11.23
-11.90
-11.84
-10.94
-9.26
-7.04
-4.58
-2.08
0.38
2.86
5.47
8.21
10.95
13.41
15.23
16.06
15.62
13.88
11.01
7.52
4.13
1.66
0.73
1.60
4.02
7.36
10.88
13.94
16.18
17.55
18.12
17.98
17.16
15.71
13.82
11.77
9.95
8.63
7.86
7.49
7.20
6.63
5.51
3.69
1.19
-1.79
-4.88
-7.59
-9.44
-10.15
-9.77
-8.71
-7.57
-6.98
-7.31
-8.56
-10.43
-12.39
-13.92
-14.64
-14.36
-13.09
-11.02
-8.42
-5.60
-2.90
-0.63
0.92
1.56
1.30
0.32
-1.01
-2.25
-3.02
-3.15
-2.69
-1.88
-1.03
-0.43
-0.25
-0.59
-1.41
-2.62
-4.10
-5.68
-7.19
-8.55
-9.74
-10.86
-12.00
-13.16
-14.18
-14.73
-14.45
-13.13
-10.83
-7.84
-4.61
-1.58
1.01
3.06
4.64
5.85
6.75
7.34
7.56
7.44
7.04
6.51
6.05
5.81
5.86
6.14
6.56
7.03
7.51
8.02
8.55
9.01
9.24
9.02
8.21
6.78
4.85
2.64
0.39
-1.71
-3.49
-4.84
-5.66
-5.91
-5.62
-4.90
-3.91
-2.84
-1.82
-0.92
-0.14
0.55
1.12
1.46
1.43
0.95
0.11
-0.77
-1.21
-0.73
0.96
3.77
7.18
10.40
12.53
12.94
11.41
8.21
4.02
-0.33
-4.11
-6.85
-8.40
-8.88
-8.50
-7.49
-6.01
-4.24
-2.35
-0.53
1.06
2.36
3.42
4.39
5.35
6.28
6.97
7.15
6.60
5.27
3.30
0.99
-1.36
-3.48
-5.16
-6.27
-6.74
-6.58
-5.87
-4.86
-3.78
-2.88
-2.28
-1.98
-1.91
-1.95
-2.01
-2.04
-1.98
-1.69
-1.03
0.11
1.70
3.63
5.63
7.43
8.81
9.65
9.87
9.42
8.30
6.53
4.23
1.64
-0.92
-3.15
-4.88
-6.06
-6.82
-7.26
-7.44
-7.33
-6.84
-5.95
-4.74
-3.45
-2.40
-1.92
-2.19
-3.22
-4.76
-6.34
-7.32
-7.06
-5.06
-1.24
3.95
9.55
14.28
16.97
16.96
14.34
9.93
4.99
0.80
-1.73
-2.30
-1.12
1.24
4.10
6.83
8.93
10.06
10.03
8.80
6.54
3.61
0.50
-2.31
-4.45
-5.82
-6.57
-7.02
-7.53
-8.31
-9.31
-10.21
-10.49
-9.67
-7.50
-4.15
-0.14
3.78
7.02
9.31
10.86
12.11
13.47
15.02
16.41
17.07
16.47
14.46
11.32
7.66
4.18
1.40
-0.38
-1.12
-0.87
0.29
2.22
4.73
7.56
10.37
12.81
14.66
15.87
16.61
17.16
17.85
18.92
20.39
22.04
23.39
23.85
22.77
19.69
14.41
7.09
-1.67
-10.96
-19.69
-26.79
-31.46
-33.34
-32.54
-29.57
-25.22
-20.31
-15.52
-11.37
-8.19
-6.24
-5.71
-6.67
-8.98
-12.19
-15.62
-18.53
-20.41
-21.04
-20.49
-18.97
-16.61
-13.37
-9.19
-4.23
1.04
5.80
9.19
10.55
9.74
7.13
3.48
-0.34
-3.61
-5.99
-7.52
-8.47
-9.23
-9.98
-10.69
-11.10
-10.92
