1540452940.00
64.000000
-0.00
-0.00
-0.00
-0.00
-0.00
-0.00
-0.00
-0.00
-0.00
-0.00
0.00
0.01
0.01
-0.00
-0.03
-0.05
-0.05
0.00
0.13
0.36
0.66
1.01
1.37
1.72
2.06
2.40
2.79
3.24
3.80
4.42
5.06
5.66
6.20
6.68
7.15
7.68
8.31
9.14
10.09
11.04
11.88
12.56
13.14
13.76
14.65
15.96
17.91
20.32
22.90
25.38
27.58
29.57
31.68
34.32
37.81
42.54
48.15
54.10
59.83
64.97
69.58
74.14
79.34
85.71
93.76
103.00
112.62
121.73
129.77
136.75
143.30
150.75
157.77
166.64
177.95
191.79
206.97
220.57
228.25
225.36
208.53
176.87
132.76
80.05
23.07
-34.94
-92.44
-149.16
-205.23
-260.37
-313.74
-363.87
-409.83
-450.91
-486.50
-515.74
-537.23
-549.22
-549.96
-538.37
-514.21
-478.67
-433.88
-382.45
-327.02
-269.84
-212.63
-156.66
-102.95
-52.37
-5.90
35.58
71.43
101.35
125.50
144.38
158.69
169.15
176.37
180.75
182.57
182.07
179.51
175.23
169.65
163.18
156.15
148.81
141.30
133.69
126.02
118.33
110.69
103.16
95.80
88.68
81.83
75.25
68.95
62.95
57.25
51.86
46.78
42.03
37.59
33.45
29.61
26.07
22.81
19.83
17.11
14.67
12.48
10.54
8.83
7.35
6.07
4.97
4.05
3.27
2.62
2.09
1.65
1.30
1.01
0.79
0.61
0.47
0.37
0.29
0.23
0.19
0.17
0.16
0.16
0.17
0.18
0.21
0.24
0.27
0.31
0.35
0.40
0.44
0.49
0.54
0.59
0.64
0.70
0.75
0.82
0.89
0.96
1.05
1.14
1.24
1.36
1.49
1.63
1.80
1.98
2.18
2.41
2.66
2.93
3.23
3.57
3.93
4.33
4.77
5.24
5.75
6.29
6.88
7.51
8.18
8.89
9.65
10.46
11.31
12.21
13.15
14.15
15.20
16.32
17.51
18.75
20.02
21.30
22.52
23.59
24.43
24.89
24.88
24.26
22.97
20.95
18.22
14.83
10.87
6.54
2.01
-2.48
-6.73
-10.54
-13.80
-16.40
-18.33
-19.58
-20.18
-20.20
-19.70
-18.77
-17.52
-16.07
-14.51
-12.93
-11.38
-9.85
-8.35
-6.85
-5.35
-3.81
-2.29
-0.82
0.55
1.86
3.18
4.55
6.05
7.72
9.56
11.46
13.24
14.77
16.04
17.28
18.50
19.91
21.66
23.74
25.91
27.81
29.13
29.82
30.19
30.36
30.69
31.47
32.68
33.90
34.50
33.89
31.88
28.86
24.90
20.45
15.79
10.79
4.73
-3.63
-16.09
-35.12
-58.67
-86.31
-116.91
-148.05
-176.04
-196.73
-206.76
-204.76
-191.79
-170.80
-146.05
-120.99
-97.58
-76.51
-57.86
-41.68
-28.26
-17.80
-10.01
-4.53
-0.45
3.17
6.82
10.44
13.49
15.34
15.66
14.71
13.00
11.56
11.44
13.29
17.09
22.15
27.46
32.06
35.42
37.35
38.12
38.16
37.73
36.88
35.51
33.47
30.76
27.52
23.92
20.19
16.53
13.17
10.37
8.43
7.64
8.14
9.81
12.29
15.02
17.40
18.98
19.54
19.09
17.82
16.07
14.11
12.17
10.33
8.51
6.56
4.30
1.66
-1.22
-4.02
-6.24
-7.38
-7.19
-5.74
-3.47
-1.07
0.83
1.83
1.92
1.39
0.63
-0.06
-0.63
-1.27
-2.30
-3.99
-6.41
-9.36
-12.38
-14.81
-15.99
-15.44
-13.04
-9.08
-4.18
0.86
5.34
8.84
11.21
12.58
13.17
13.17
12.68
11.71
10.22
8.14
5.44
2.16
-1.48
-5.04
-7.94
-9.52
-9.29
-7.09
-3.16
1.86
7.16
11.96
15.73
18.26
19.60
19.97
19.58
18.60
17.07
14.97
12.29
9.04
5.31
1.39
-2.23
-4.96
-6.25
-5.76
-3.54
-0.11
3.80
7.42
10.27
12.14
13.11
13.33
12.94
12.05
10.76
9.22
7.59
5.99
4.38
2.63
0.61
-1.66
-3.89
-5.61
-6.33
-5.76
-3.94
-1.24
1.76
4.52
6.64
7.94
8.40
8.11
7.20
5.81
4.09
2.15
0.08
-2.11
-4.44
-6.91
-9.41
-11.72
-13.44
-14.23
-13.89
-12.47
-10.28
-7.81
-5.51
-3.69
-2.52
-1.99
-2.04
-2.57
-3.50
-4.81
-6.48
-8.51
-10.87
-13.43
-15.94
-17.94
-18.84
-18.17
-15.65
-11.46
-6.14
-0.48
4.72
8.94
11.90
13.61
14.24
13.99
13.02
11.47
9.38
6.78
3.70
0.22
-3.43
-6.86
-9.51
-10.83
-10.47
-8.36
-4.82
-0.41
4.26
8.60
12.26
15.00
16.78
17.59
17.52
16.65
15.11
13.02
10.48
7.59
4.48
1.36
-1.47
-3.62
-4.70
-4.43
-2.74
0.22
4.04
8.18
12.06
15.19
17.27
18.20
18.06
17.07
15.47
13.49
11.27
8.81
6.09
3.04
-0.24
-3.50
-6.34
-8.27
-8.93
-8.18
-6.20
-3.41
-0.41
2.24
4.11
5.01
4.92
4.05
2.68
1.05
-0.67
-2.50
-4.55
-6.98
-9.81
-12.90
-15.84
-18.08
-19.06
-18.40
-16.06
-12.34
-7.83
-3.19
0.98
4.32
6.72
8.26
9.09
9.31
8.94
7.85
5.93
3.11
-0.55
-4.70
-8.83
-12.26
-14.40
-14.77
-13.27
-10.08
-5.69
-0.74
4.16
8.44
11.70
13.69
14.31
13.60
11.74
8.95
5.47
1.45
-2.95
-7.51
-11.85
-15.38
-17.42
-17.38
-15.05
-10.64
-4.83
1.48
7.42
12.40
16.10
18.53
19.80
20.12
19.64
18.51
16.87
14.82
12.43
9.69
6.61
3.33
0.13
-2.57
-4.25
-4.54
-3.29
-0.68
2.79
6.50
9.80
12.23
13.54
13.72
12.95
11.50
9.71
7.87
6.19
4.70
3.24
1.55
-0.58
-3.09
-5.67
-7.72
-8.68
-8.21
-6.41
-3.74
-0.88
1.56
3.18
3.89
3.83
3.19
2.15
0.81
-0.80
-2.71
-4.97
-7.61
-10.60
-13.75
-16.68
-18.86
-19.69
-18.76
-16.01
-11.84
-6.94
-2.18
1.80
4.61
6.25
6.91
6.84
6.25
5.21
3.73
1.76
-0.73
-3.69
-6.99
-10.29
-13.09
-14.81
-14.88
-13.01
-9.35
-4.47
0.76
5.47
9.02
11.16
11.98
11.79
10.93
9.63
8.03
6.15
3.98
1.51
-1.20
-3.94
-6.40
-8.08
-8.50
-7.27
-4.32
0.05
5.21
10.39
14.87
18.13
20.00
20.54
20.02
18.74
17.02
15.12
13.22
11.38
9.53
7.48
5.09
2.35
-0.49
-2.91
-4.32
-4.21
-2.41
0.81
4.84
8.93
12.37
14.78
15.99
16.07
15.18
13.50
11.27
8.73
6.12
3.62
1.27
-1.01
-3.35
-5.69
-7.76
-9.12
-9.34
-8.27
-6.14
-3.55
-1.22
0.31
0.80
0.33
-0.80
-2.28
-3.93
-5.71
-7.70
-10.01
-12.71
-15.71
-18.70
-21.23
-22.72
-22.69
-20.86
-17.34
-12.64
-7.48
-2.67
1.20
3.84
5.29
5.82
5.75
5.27
4.50
3.40
1.87
-0.17
-2.76
-5.77
-8.90
-11.60
-13.18
-13.03
-10.81
-6.67
-1.25
4.50
9.63
13.44
15.65
16.36
15.89
14.65
12.93
10.88
8.50
5.75
2.57
-0.96
-4.57
-7.79
-10.03
-10.69
-9.41
-6.18
-1.46
3.97
9.21
13.56
16.63
18.38
19.00
18.75
17.85
16.43
14.58
12.42
10.08
7.65
5.16
2.59
-0.03
-2.49
-4.38
-5.21
-4.54
-2.31
1.17
5.20
8.96
11.75
13.26
13.54
12.94
11.91
10.77
9.64
8.39
6.79
4.64
1.90
-1.25
-4.35
-6.89
-8.38
-8.53
-7.34
-5.11
-2.30
0.58
3.14
5.14
6.45
7.01
6.80
5.86
4.30
2.31
0.11
-2.17
-4.50
-6.95
-9.55
-12.14
-14.35
-15.71
-15.78
-14.43
-11.89
-8.65
-5.32
-2.45
-0.32
0.98
1.56
1.61
1.31
0.80
0.10
-0.83
-2.09
-3.79
-5.96
-8.49
-11.07
-13.23
-14.40
-14.12
-12.19
-8.70
-4.14
0.76
5.26
8.74
10.90
11.74
11.47
10.44
8.92
7.08
5.02
2.68
0.07
-2.78
-5.63
-8.05
-9.50
-9.51
-7.86
-4.71
-0.61
3.68
7.40
10.08
11.59
12.07
11.79
10.96
9.72
8.09
6.08
3.70
0.99
-2.01
-5.13
-8.15
-10.65
-12.17
-12.26
-10.70
-7.57
-3.21
1.79
6.81
11.27
14.75
17.02
17.99
17.71
16.38
14.22
11.47
8.33
4.91
1.33
-2.23
-5.40
-7.72
-8.66
-7.88
-5.29
-1.20
3.74
8.72
12.95
15.92
17.45
17.75
17.18
16.13
14.87
13.43
11.72
9.56
6.91
3.85
0.67
-2.24
-4.46
-5.65
-5.59
-4.24
-1.77
1.41
4.82
7.95
10.39
11.92
12.54
12.37
11.63
10.53
9.21
7.71
5.96
3.82
1.16
-1.99
-5.34
-8.38
-10.49
-11.15
-10.21
-7.91
-4.78
-1.51
1.33
3.39
4.54
4.82
4.33
3.23
1.68
-0.09
-1.87
-3.57
-5.25
-7.12
-9.40
-12.06
-14.74
-16.78
-17.48
-16.41
-13.67
-9.87
-5.84
-2.35
0.22
1.82
2.65
2.92
2.68
1.86
0.39
-1.69
-4.21
-6.89
-9.48
-11.76
-13.55
-14.68
-14.91
-14.03
-11.92
-8.70
-4.73
-0.57
3.24
6.30
8.45
9.73
10.25
10.07
9.17
7.52
5.11
2.04
-1.42
-4.81
-7.64
-9.45
-9.91
-8.92
-6.66
-3.48
0.17
3.85
7.24
10.06
12.14
13.36
13.68
13.16
11.95
10.28
8.29
6.05
3.51
0.64
-2.43
-5.36
-7.60
-8.54
-7.79
-5.29
-1.42
3.12
7.55
11.16
13.58
14.76
14.89
14.29
13.24
11.90
10.34
8.59
6.67
4.62
2.46
0.27
-1.85
-3.65
-4.73
-4.69
-3.25
-0.45
3.29
7.24
10.69
13.09
14.29
14.41
13.78
12.72
11.45
10.09
8.65
7.10
5.36
3.36
1.10
-1.31
-3.57
-5.32
-6.16
-5.86
-4.40
-2.06
0.69
3.28
5.21
6.23
6.37
5.83
4.92
3.85
2.75
1.62
0.41
-0.94
-2.47
-4.23
-6.17
-8.20
-10.01
-11.25
-11.58
-10.87
-9.29
-7.28
-5.36
-3.95
-3.25
-3.20
-3.60
-4.21
-4.87
-5.51
-6.19
-7.03
-8.22
-9.87
-11.96
-14.25
-16.29
-17.56
-17.62
-16.26
-13.60
-10.03
-6.06
-2.19
1.18
3.79
5.54
6.35
6.31
5.53
4.18
2.41
0.33
-2.04
-4.68
-7.43
-10.02
-12.02
-12.99
-12.69
-11.09
-8.43
-5.11
-1.60
1.73
4.58
6.76
8.16
8.78
8.67
7.93
6.65
4.90
2.72
0.16
-2.65
-5.48
-7.99
-9.74
-10.32
-9.49
-7.25
-3.92
-0.01
3.83
7.06
9.35
10.60
10.94
10.61
9.85
8.86
7.75
6.54
5.17
3.56
1.69
-0.34
-2.24
-3.64
-4.15
-3.56
-1.91
0.51
3.28
5.92
8.07
9.56
10.35
10.50
10.14
9.41
8.44
7.29
5.98
4.46
2.67
0.59
-1.71
-4.00
-5.91
-6.98
-6.85
-5.38
-2.76
0.52
3.78
6.42
8.08
8.70
8.49
7.74
6.76
5.70
4.59
3.39
2.00
0.37
-1.54
-3.67
-5.85
-7.81
-9.17
-9.61
-8.97
-7.30
-4.91
-2.30
0.01
1.61
2.30
2.20
1.56
0.73
-0.03
-0.65
-1.27
-2.10
-3.37
-5.16
-7.37
-9.73
-11.88
-13.46
-14.16
-13.84
-12.52
-10.43
-7.99
-5.66
-3.90
-3.00
-3.02
-3.79
-4.97
-6.18
-7.10
-7.64
-7.87
-8.07
-8.53
-9.35
-10.42
-11.38
-11.76
-11.15
-9.40
-6.62
-3.26
0.13
2.98
4.92
5.79
5.71
4.91
3.70
2.31
0.81
-0.83
-2.76
-5.12
-7.86
-10.71
-13.17
-14.68
-14.72
-13.06
-9.84
-5.53
-0.78
3.78
7.60
10.39
11.95
12.32
11.65
10.22
8.40
6.53
4.83
3.27
1.68
-0.14
-2.19
-4.24
-5.77
-6.26
-5.33
-2.99
0.37
4.15
7.71
10.61
12.64
13.82
14.28
14.14
13.48
12.38
10.91
9.16
7.22
5.11
2.81
0.35
-2.16
-4.48
-6.23
-7.01
-6.54
-4.77
-1.95
1.42
4.72
7.39
9.08
9.68
9.35
8.39
7.14
5.82
4.51
3.16
1.63
-0.20
-2.36
-4.72
-7.01
-8.86
-9.93
-10.04
-9.21
-7.68
-5.78
-3.86
-2.19
-0.91
-0.11
0.21
0.11
-0.28
-0.81
-1.35
-1.83
-2.37
-3.19
-4.55
-6.58
-9.13
-11.74
-13.73
-14.48
-13.61
-11.19
-7.75
-4.08
-0.93
1.20
2.21
2.27
1.74
0.91
-0.07
-1.21
-2.56
-4.13
-5.87
-7.70
-9.46
-10.98
-12.00
-12.25
-11.47
-9.56
-6.64
-3.10
0.53
3.74
6.17
7.71
8.45
8.60
8.36
7.81
6.97
5.75
4.08
1.96
-0.47
-2.98
-5.27
-7.03
-7.98
-7.94
-6.86
-4.78
-1.95
1.25
4.33
6.76
8.17
8.44
7.72
6.39
4.83
3.30
1.83
0.32
-1.38
-3.33
-5.44
-7.39
-8.81
-9.31
-8.66
-6.81
-3.97
-0.55
2.97
6.09
8.49
10.00
10.64
10.55
9.90
8.87
7.64
6.33
5.04
3.73
2.32
0.65
-1.30
-3.39
-5.25
-6.44
-6.56
-5.50
-3.46
-0.93
1.53
3.47
4.68
5.17
5.10
4.61
3.77
2.61
1.15
-0.53
-2.31
-4.07
-5.75
-7.25
-8.46
-9.18
-9.13
-8.08
-6.00
-3.10
0.17
3.28
5.80
7.51
8.37
8.44
7.82
6.61
4.95
3.02
1.02
-0.91
-2.76
-4.59
-6.45
-8.21
-9.57
-10.14
-9.60
-7.89
-5.22
-2.06
1.10
3.82
5.85
7.08
7.57
7.43
6.84
6.00
5.11
4.23
3.33
2.24
0.81
-0.97
-2.90
-4.60
-5.60
-5.56
-4.39
-2.31
0.29
2.93
5.26
7.08
8.29
8.90
8.91
8.35
7.29
5.89
4.29
2.67
1.12
-0.40
-1.94
-3.55
-5.15
-6.52
-7.30
-7.18
-6.03
-3.99
-1.48
0.98
2.92
4.09
4.49
4.31
3.76
3.03
2.22
1.34
0.39
-0.71
-2.05
-3.72
-5.72
-7.90
-9.98
-11.52
-12.18
-11.78
-10.43
-8.46
-6.32
-4.42
-3.05
-2.34
-2.28
-2.78
-3.68
-4.82
-6.05
-7.28
-8.52
-9.85
-11.33
-12.97
-14.58
-15.80
-16.21
-15.47
-13.43
-10.22
-6.20
-1.87
2.28
5.82
8.44
9.96
10.31
9.59
8.00
5.88
3.50
1.06
-1.39
-3.85
-6.27
-8.47
-10.09
-10.76
-10.22
-8.42
-5.58
-2.13
1.44
4.68
7.26
9.04
10.01
10.27
9.97
9.24
8.16
6.77
5.08
3.07
0.77
-1.72
-4.18
-6.22
-7.38
-7.28
-5.70
-2.77
1.07
5.18
8.93
11.83
13.67
14.43
14.24
13.26
11.66
9.68
7.56
5.58
3.88
2.39
0.87
-0.97
-3.24
-5.70
-7.82
-8.96
-8.62
-6.71
-3.57
0.13
3.66
6.43
8.10
8.62
8.15
6.96
5.31
3.45
1.51
-0.46
-2.45
-4.51
-6.70
-9.04
-11.45
-13.70
-15.43
-16.19
-15.64
-13.66
-10.53
-6.87
-3.39
-0.66
1.07
1.93
2.23
2.23
1.97
1.27
-0.15
-2.40
-5.26
-8.29
-10.85
-12.38
-12.54
-11.25
-8.66
-5.02
-0.69
3.95
8.44
12.32
15.17
16.70
16.90
15.99
14.34
12.33
10.25
8.24
6.25
4.14
1.75
-0.94
-3.76
-6.26
-7.86
-8.01
-6.41
-3.18
1.12
5.76
9.96
13.22
15.29
16.23
16.17
15.27
13.68
11.58
9.18
6.71
4.37
2.25
0.30
-1.56
-3.36
-4.94
-5.90
-5.79
-4.24
-1.23
2.85
7.27
11.25
14.17
15.74
16.06
15.44
14.23
12.68
10.97
9.16
7.30
5.39
3.40
1.26
-1.11
-3.63
-6.08
-8.01
-8.93
-8.50
-6.69
-3.85
-0.64
2.26
4.33
5.39
5.54
5.05
4.15
2.97
1.51
-0.24
-2.25
-4.41
-6.62
-8.78
-10.82
-12.67
-14.15
-15.03
-15.05
-14.04
-12.04
-9.29
-6.19
-3.18
-0.67
1.13
2.13
2.40
2.06
1.27
0.14
-1.28
-3.05
-5.21
-7.78
-10.61
-13.36
-15.55
-16.66
-16.37
-14.57
-11.47
-7.50
-3.16
1.04
4.72
7.58
9.46
10.28
10.12
9.14
7.60
5.71
3.60
1.22
-1.54
-4.74
-8.16
-11.30
-13.43
-13.85
-12.21
-8.61
-3.66
1.75
6.73
10.61
13.10
14.20
14.15
13.28
11.90
10.27
8.54
6.77
4.85
2.66
0.16
-2.51
-5.02
-6.90
-7.64
-6.92
-4.71
-1.22
3.07
7.60
11.82
15.23
17.48
18.36
17.86
16.21
13.80
11.13
8.64
6.53
4.76
3.04
1.07
-1.33
-3.97
-6.39
-7.91
-7.99
-6.40
-3.33
0.68
4.95
8.84
11.96
14.10
15.18
15.18
14.14
12.23
9.75
7.14
4.79
2.88
1.28
-0.34
-2.36
-4.89
-7.68
-10.11
-11.46
-11.19
-9.18
-5.76
-1.61
2.52
6.01
8.49
9.87
10.20
9.63
8.30
6.42
4.19
1.86
-0.40
-2.56
-4.73
-7.08
-9.67
-12.34
-14.66
-16.08
-16.15
-14.73
-12.09
-8.82
-5.62
-3.06
-1.37
-0.47
-0.05
0.19
0.42
0.64
0.68
0.33
-0.55
-2.00
-3.93
-6.11
-8.23
-9.89
-10.70
-10.31
-8.53
-5.46
-1.41
3.10
7.47
11.18
13.87
15.35
15.62
14.83
13.20
11.03
8.57
6.00
3.33
0.46
-2.69
-6.05
-9.24
-11.68
-12.68
-11.80
-9.04
-4.85
-0.03
4.53
8.15
10.49
11.52
11.49
10.64
9.25
7.46
5.42
3.27
1.13
-0.91
-2.85
-4.74
-6.59
-8.23
-9.26
-9.14
-7.44
-4.11
0.44
5.35
9.68
12.70
14.13
14.10
13.02
11.32
9.35
7.30
5.30
3.46
1.84
0.38
-1.09
-2.80
-4.95
-7.50
-10.06
-12.03
-12.74
-11.76
-9.11
-5.27
-1.05
2.69
5.34
6.62
6.62
5.63
4.06
2.26
0.56
-0.80
-1.66
-1.99
-1.97
-1.99
-2.48
-3.73
-5.70
-7.95
-9.78
-10.57
-9.97
-8.15
-5.66
-3.18
-1.24
-0.05
0.45
0.45
0.04
-0.78
-2.08
-3.84
-5.87
-7.88
-9.64
-11.10
-12.44
-13.88
-15.49
-17.01
-17.95
-17.71
-15.96
-12.78
-8.69
-4.48
-0.89
1.59
2.82
2.96
2.31
1.18
-0.26
-1.91
-3.74
-5.69
-7.73
-9.76
-11.68
-13.36
-14.53
-14.89
-14.06
-11.86
-8.35
-3.95
0.67
4.81
7.97
9.98
10.90
10.98
10.40
9.25
7.61
5.60
3.39
1.14
-1.07
-3.26
-5.47
-7.58
-9.28
-10.07
-9.52
-7.49
-4.25
-0.40
3.29
6.18
7.92
8.45
7.97
6.78
5.17
3.39
1.59
-0.15
-1.85
-3.60
-5.57
-7.77
-10.11
-12.20
-13.48
-13.36
-11.47
-7.81
-2.83
2.69
7.92
12.14
14.98
16.36
16.42
15.51
13.95
12.08
10.16
8.36
6.70
5.09
3.37
1.34
-1.07
-3.74
-6.28
-8.12
-8.65
-7.46
-4.55
-0.37
4.28
8.55
11.80
13.73
14.36
13.92
12.71
11.01
9.05
7.08
5.25
3.63
2.12
0.49
-1.43
-3.67
-5.98
-7.89
-8.87
-8.50
-6.71
-3.72
-0.06
3.64
6.75
8.85
9.75
9.52
8.47
6.95
5.31
3.73
2.24
0.74
-0.91
-2.81
-4.96
-7.26
-9.54
-11.46
-12.66
-12.75
-11.47
-8.84
-5.22
-1.25
2.33
4.94
6.28
6.42
5.65
4.37
2.89
1.43
0.04
-1.33
-2.85
-4.73
-7.11
-9.98
-13.07
-15.82
-17.54
-17.63
-15.82
-12.28
-7.59
-2.57
1.98
5.45
7.53
8.23
7.77
6.47
4.65
2.61
0.48
-1.67
-3.90
-6.32
-9.04
-11.99
-14.94
-17.36
-18.59
-18.00
-15.28
-10.57
-4.55
1.75
7.27
11.22
13.30
13.66
12.79
11.23
9.35
7.29
5.04
2.53
-0.28
-3.34
-6.52
-9.61
-12.33
-14.32
-15.16
-14.49
-12.10
-8.14
-3.09
2.28
7.18
10.95
13.22
13.96
13.41
11.97
10.04
7.98
5.99
4.14
2.33
0.34
-2.01
-4.75
-7.66
-10.21
-11.72
-11.60
-9.53
-5.67
-0.60
4.82
9.74
13.46
15.55
15.94
14.76
12.39
9.33
6.11
3.13
0.58
-1.60
-3.68
-5.95
-8.54
-11.24
-13.49
-14.57
-13.83
-11.01
-6.37
-0.60
5.33
10.46
14.12
15.99
16.13
14.90
12.80
10.35
7.93
5.76
3.85
2.07
0.22
-1.84
-4.06
-6.17
-7.71
-8.18
-7.15
-4.49
-0.42
4.48
9.44
13.70
16.72
18.26
18.43
17.53
15.95
14.01
11.92
9.79
7.63
5.41
3.07
0.54
-2.18
-5.00
-7.66
-9.70
-10.62
-9.98
-7.66
-3.94
0.54
4.98
8.67
11.23
12.58
12.89
12.35
11.12
9.24
6.77
3.85
0.74
-2.25
-4.90
-7.14
-9.08
-10.88
-12.57
-13.90
-14.43
-13.68
-11.45
-7.94
-3.82
0.11
3.08
4.76
5.21
4.78
3.83
2.60
1.17
-0.46
-2.26
-4.17
-6.12
-8.10
-10.13
-12.15
-13.89
-14.91
-14.68
-12.85
-9.42
-4.85
0.14
4.71
8.26
10.42
11.17
10.71
9.34
7.41
5.23
3.00
0.83
-1.32
-3.60
-6.15
-8.97
-11.83
-14.20
-15.39
-14.77
-12.09
-7.59
-1.97
3.81
8.85
12.53
14.63
15.22
14.56
12.96
10.72
8.14
5.50
3.03
0.82
-1.17
-3.13
-5.20
-7.38
-9.39
-10.68
-10.67
-8.92
-5.38
-0.53
4.82
9.70
13.34
15.36
15.80
14.98
13.37
11.35
9.17
6.95
4.78
2.73
0.79
-1.04
-2.84
-4.66
-6.41
-7.80
-8.41
-7.76
-5.59
-1.98
2.59
7.35
11.46
14.30
15.56
15.34
14.01
12.05
9.88
7.76
5.78
3.90
2.05
0.12
-1.92
-4.10
-6.31
-8.33
-9.77
-10.17
-9.18
-6.68
-2.91
1.58
6.05
9.81
12.37
13.55
13.42
12.25
10.35
8.01
5.51
3.10
0.95
-0.86
-2.39
-3.83
-5.36
-7.09
-8.86
-10.28
-10.81
-10.04
-7.83
-4.49
-0.61
3.08
5.97
7.70
8.26
7.80
6.64
5.02
3.18
1.24
-0.69
-2.60
-4.48
-6.41
-8.53
-10.92
-13.52
-16.05
-17.97
-18.65
-17.61
-14.79
-10.60
-5.91
-1.68
1.34
2.86
3.02
2.25
0.99
-0.49
-2.11
-3.85
-5.69
-7.55
-9.39
-11.25
-13.25
-15.47
-17.73
-19.53
-20.14
-18.92
-15.61
-10.58
-4.67
1.04
5.67
8.78
10.36
10.73
10.25
9.16
7.60
5.63
3.35
0.93
-1.50
-3.93
-6.42
-9.00
-11.49
-13.40
-14.07
-12.91
-9.72
-4.85
0.85
6.36
10.81
13.72
15.05
15.02
13.97
12.16
9.86
7.28
4.68
2.24
0.07
-1.89
-3.86
-6.00
-8.31
-10.47
-11.90
-12.00
-10.36
-6.98
-2.30
2.91
7.82
11.76
14.32
15.45
15.33
14.30
12.71
10.88
9.05
7.35
5.85
4.53
3.27
1.86
0.12
-1.99
-4.26
-6.19
-7.14
-6.57
-4.26
-0.48
4.14
8.73
12.53
15.01
15.94
15.46
13.87
11.59
9.01
6.41
3.96
1.77
-0.17
-1.87
-3.45
-5.06
-6.85
-8.79
-10.57
-11.68
-11.55
-9.82
-6.55
-2.25
2.31
6.34
9.29
10.93
11.32
10.66
9.24
7.36
5.28
3.23
1.35
-0.33
-1.87
-3.41
-5.11
-7.06
-9.23
-11.39
-13.13
-13.90
-13.25
-10.98
-7.30
-2.85
1.47
4.83
6.69
6.95
5.94
4.19
2.25
0.45
-1.08
-2.45
-3.84
-5.44
-7.38
-9.67
-12.20
-14.69
-16.72
-17.75
-17.32
-15.19
-11.43
-6.55
-1.30
3.50
7.25
9.63
10.68
10.60
9.64
7.99
5.83
3.32
0.69
-1.87
-4.27
-6.56
-8.90
-11.37
-13.79
-15.63
-16.15
-14.76
-11.32
-6.27
-0.56
4.76
8.91
11.57
12.83
13.01
12.44
11.27
9.60
7.57
5.39
3.29
1.45
-0.18
-1.82
-3.73
-5.99
-8.38
-10.33
-11.19
-10.39
-7.79
-3.67
1.29
6.27
10.52
13.58
15.32
15.81
15.33
14.13
12.50
10.69
8.85
7.10
5.45
3.87
2.23
0.47
-1.49
-3.60
-5.71
-7.48
-8.47
-8.24
-6.50
-3.31
0.93
5.53
9.72
12.88
14.71
15.20
14.59
13.21
11.36
9.24
6.97
4.68
2.47
0.45
-1.32
-2.91
-4.45
-6.08
-7.79
-9.37
-10.40
-10.41
-9.12
-6.56
-3.18
0.38
3.44
5.56
6.60
6.71
6.15
5.15
3.84
2.24
0.38
-1.67
-3.76
-5.79
-7.75
-9.76
-12.00
-14.45
-16.86
-18.64
-19.12
-17.77
-14.49
-9.66
-4.08
1.32
5.73
8.65
9.96
9.82
8.58
6.68
4.50
2.34
0.33
-1.49
-3.20
-4.90
-6.70
-8.62
-10.56
-12.25
-13.30
-13.29
-11.91
-9.10
-5.14
-0.53
4.09
8.10
11.05
12.69
12.99
12.11
10.34
8.09
5.78
3.73
2.06
0.73
-0.51
-1.89
-3.59
-5.55
-7.46
-8.86
-9.27
-8.33
-5.94
-2.35
1.96
6.37
10.27
13.25
15.06
15.71
15.33
14.16
12.46
10.52
8.56
6.75
5.15
3.71
2.30
0.76
-0.97
-2.87
-4.72
-6.16
-6.78
-6.21
-4.31
-1.19
2.75
6.91
10.68
13.50
15.09
15.40
14.63
13.10
11.15
9.10
7.15
5.34
3.69
2.11
0.54
-1.04
-2.65
-4.25
-5.81
-7.23
-8.29
-8.69
-8.13
-6.43
-3.66
-0.24
3.24
6.17
8.10
8.89
8.67
7.68
6.18
4.37
2.35
0.25
-1.79
-3.60
-5.13
-6.43
-7.77
-9.40
-11.44
-13.66
-15.51
-16.30
-15.49
-12.96
-9.12
-4.71
-0.62
2.47
4.21
4.61
3.95
2.59
0.89
-0.89
-2.61
-4.18
-5.65
-7.07
-8.55
-10.18
-11.98
-13.82
-15.38
-16.18
-15.72
-13.63
-9.91
-4.97
0.44
5.46
9.40
11.89
12.93
12.75
11.69
10.08
8.18
6.20
4.33
2.64
1.15
-0.27
-1.82
-3.68
-5.88
-8.19
-10.15
-11.18
-10.81
-8.89
-5.69
-1.76
2.16
5.49
7.85
9.16
9.51
9.09
8.07
6.66
5.04
3.42
1.94
0.62
-0.65
-2.08
-3.86
-6.05
-8.47
-10.70
-12.21
-12.46
-11.09
-8.10
-3.81
1.20
6.23
10.67
14.06
16.16
16.91
16.38
14.81
12.50
9.87
7.30
5.07
3.33
2.05
1.07
0.21
-0.72
-1.80
-3.02
-4.23
-5.10
-5.21
-4.19
-1.84
1.70
5.98
10.33
14.11
16.82
18.28
18.55
17.84
16.42
14.56
12.47
10.34
8.34
6.54
4.98
3.62
2.39
1.21
0.04
-1.11
-2.13
-2.81
-2.90
-2.17
-0.51
1.97
4.92
7.83
10.17
11.57
11.89
11.27
9.94
8.21
6.29
4.31
2.35
0.46
-1.34
-3.00
-4.50
-5.86
-7.17
-8.49
-9.79
-10.92
-11.53
-11.26
-9.82
-7.21
-3.81
-0.27
2.70
4.61
5.29
4.92
3.90
2.58
1.21
-0.13
-1.47
-2.84
-4.26
-5.74
-7.31
-9.04
-10.94
-12.97
-14.90
-16.39
-17.03
-16.46
-14.58
-11.53
-7.71
-3.68
0.00
2.86
4.60
5.11
4.46
2.86
0.63
-1.90
-4.39
-6.60
-8.42
-9.84
-10.97
-11.98
-13.02
-14.08
-15.01
-15.48
-15.09
-13.61
-10.99
-7.54
-3.77
-0.27
2.43
4.04
4.49
3.97
2.79
1.32
-0.15
-1.45
-2.51
-3.42
-4.26
-5.11
-6.00
-6.92
-7.84
-8.70
-9.37
-9.56
-8.95
-7.20
-4.25
-0.31
4.10
8.31
11.76
14.13
15.36
15.62
15.16
14.23
13.04
11.74
10.48
9.33
8.30
7.34
6.37
5.36
4.29
3.24
2.31
1.69
1.62
2.38
4.16
6.95
10.47
14.22
17.57
20.01
21.25
21.32
20.45
18.92
16.98
14.78
12.49
10.24
8.20
6.45
4.97
3.63
2.20
0.49
-1.58
-3.91
-6.17
-7.90
-8.64
-8.14
-6.44
-3.96
-1.32
0.89
2.26
2.76
2.61
2.16
1.66
1.23
0.80
0.25
-0.54
-1.63
-3.01
-4.65
-6.55
-8.69
-11.07
-13.60
-16.05
-18.00
-18.97
-18.56
-16.64
-13.46
-9.59
-5.75
-2.56
-0.40
0.63
0.62
-0.24
-1.76
-3.71
-5.83
-7.81
-9.36
-10.32
-10.70
-10.73
-10.78
-11.20
-12.13
-13.42
-14.58
-14.97
-14.03
-11.53
-7.75
-3.33
0.94
4.38
6.63
7.64
7.60
6.77
5.36
3.58
1.61
-0.35
-2.10
-3.52
-4.66
-5.71
-7.03
-8.84
-11.13
-13.53
-15.35
-15.87
-14.62
-11.63
-7.42
-2.81
1.39
4.63
6.70
7.66
7.69
7.01
5.83
4.40
2.98
1.80
1.00
0.52
0.20
-0.22
-0.96
-2.12
-3.64
-5.21
-6.37
-6.62
-5.55
-3.04
0.66
4.98
9.17
12.54
14.64
15.41
15.07
14.03
12.70
11.36
10.13
9.00
7.89
6.82
5.84
5.06
4.54
4.14
3.63
2.79
1.59
0.31
-0.51
-0.34
1.18
4.01
7.74
11.76
15.47
18.45
20.47
21.54
21.71
21.07
19.74
17.89
15.73
13.53
11.49
9.73
8.19
6.68
4.95
2.80
0.22
-2.55
-5.06
-6.78
-7.28
-6.35
-4.13
-1.03
2.41
5.59
8.02
9.39
9.56
8.56
6.59
3.97
1.04
-1.85
-4.49
-6.75
-8.68
-10.36
-11.93
-13.54
-15.28
-17.18
-19.08
-20.73
-21.70
-21.63
-20.29
-17.71
-14.24
-10.40
-6.74
-3.65
-1.31
0.23
1.06
1.19
0.68
-0.36
-1.72
-3.11
-4.27
-5.09
-5.63
-6.14
-6.87
-7.96
-9.37
-10.88
-12.16
-12.86
-12.72
-11.59
-9.50
-6.66
-3.43
-0.27
2.39
4.21
5.00
4.75
3.62
1.85
-0.28
-2.52
-4.68
-6.63
-8.26
-9.55
-10.51
-11.27
-11.91
-12.49
-12.91
-12.87
-12.02
-10.07
-7.04
-3.31
0.51
3.77
6.05
7.26
7.58
7.35
6.86
6.28
5.68
5.08
4.52
4.02
3.64
3.33
3.01
2.56
1.88
0.97
-0.04
-0.89
-1.24
-0.76
0.76
3.27
6.52
10.11
13.60
16.64
19.02
20.70
21.61
21.76
21.11
19.71
17.72
15.43
13.22
11.41
10.14
9.35
8.78
8.12
7.12
5.74
4.11
2.56
1.49
1.25
2.04
3.79
6.23
8.85
11.15
12.65
13.11
12.50
11.02
8.96
6.66
4.34
2.11
-0.04
-2.18
-4.40
-6.70
-9.00
-11.21
-13.27
-15.08
-16.56
-17.54
-17.76
-17.00
-15.19
-12.53
-9.50
-6.69
-4.61
-3.48
-3.19
-3.42
-3.82
-4.17
-4.43
-4.67
-5.00
-5.44
-5.94
-6.46
-7.03
-7.76
-8.82
-10.29
-12.07
-13.78
-14.93
-15.00
-13.71
-11.12
-7.67
-3.96
-0.60
2.00
3.69
4.51
4.59
4.03
2.85
1.10
-1.11
-3.51
-5.77
-7.64
-9.03
-10.07
-11.01
-12.06
-13.27
-14.40
-15.07
-14.87
-13.57
-11.21
-8.07
-4.57
-1.14
1.85
4.19
5.77
6.61
6.84
6.64
6.22
5.73
5.28
4.92
4.63
4.34
3.92
3.25
2.22
0.84
-0.73
-2.12
-2.90
-2.66
-1.16
1.52
5.06
8.98
12.78
16.09
18.69
20.50
21.53
21.80
21.35
20.25
18.62
16.65
14.59
12.64
10.93
9.49
8.22
7.00
5.68
4.19
2.57
1.00
-0.26
-0.89
-0.64
0.52
2.36
4.51
6.48
7.90
8.58
8.49
7.69
6.29
4.33
1.94
-0.69
-3.30
-5.58
-7.33
-8.54
-9.39
-10.17
-11.18
-12.54
-14.09
-15.45
-16.16
-15.82
-14.32
-11.85
-8.88
-5.97
-3.59
-1.99
-1.18
-1.00
-1.27
-1.87
-2.77
-3.90
-5.16
-6.35
-7.24
-7.70
-7.78
-7.76
-7.98
-8.70
-9.94
-11.39
-12.56
-12.97
-12.33
-10.64
-8.16
-5.25
-2.24
0.58
2.99
4.74
5.64
5.55
4.49
2.67
0.45
-1.76
-3.68
-5.18
-6.34
-7.35
-8.45
-9.80
-11.46
-13.27
-14.89
-15.87
-15.78
-14.39
-11.78
-8.33
-4.53
-0.91
2.17
4.51
6.01
6.63
6.39
5.42
3.96
2.40
1.09
0.27
-0.04
-0.05
-0.04
-0.33
-1.11
-2.40
-4.00
-5.49
-6.32
-6.01
-4.29
-1.25
2.64
6.78
10.55
13.61
15.88
17.50
18.60
19.24
19.41
19.06
18.26
17.24
16.23
15.43
14.87
14.44
13.96
13.24
12.16
10.65
8.79
6.79
5.00
3.81
3.53
4.24
5.76
7.68
9.55
11.07
12.11
12.65
12.71
12.26
11.25
9.68
7.68
5.45
3.20
1.08
-0.93
-2.89
-4.87
-6.90
-8.95
-10.95
-12.83
-14.43
-15.52
-15.78
-14.97
-12.99
-10.02
-6.51
-3.05
-0.17
1.83
2.89
3.16
2.84
2.07
0.97
-0.37
-1.82
-3.18
-4.31
-5.17
-5.88
-6.68
-7.82
-9.42
-11.36
-13.28
-14.72
-15.21
-14.49
-12.55
-9.60
-6.07
-2.41
0.91
3.55
5.30
6.11
6.02
5.18
3.76
1.97
0.02
-1.85
-3.42
-4.56
-5.32
-5.90
-6.64
-7.84
-9.62
-11.81
-13.93
-15.36
-15.57
-14.31
-11.68
-8.17
-4.36
-0.82
2.12
4.29
5.69
6.33
6.21
5.37
3.94
2.19
0.48
-0.87
-1.69
-1.97
-1.88
-1.70
-1.71
-2.19
-3.28
-4.91
-6.81
-8.43
-9.19
-8.62
-6.58
-3.30
0.69
4.81
8.55
11.64
14.01
15.71
16.80
17.30
17.21
16.59
15.60
14.55
13.73
13.39
13.57
14.04
14.43
14.39
13.70
12.42
10.80
9.17
7.82
6.90
6.52
6.74
7.60
9.08
11.01
13.08
14.89
16.07
16.42
15.95
14.78
13.09
11.02
8.70
6.31
4.07
2.18
0.76
-0.28
-1.18
-2.24
-3.69
-5.58
-7.82
-10.16
-12.32
-14.01
-14.94
-14.92
-13.85
-11.86
-9.26
-6.50
-4.03
-2.17
-1.06
-0.68
-0.92
-1.66
-2.73
-3.96
-5.17
-6.19
-6.92
-7.37
-7.66
-7.92
-8.30
-8.84
-9.55
-10.35
-11.11
-11.68
-11.83
-11.39
-10.25
-8.43
-6.12
-3.54
-1.00
1.27
3.09
4.33
4.88
4.69
3.80
2.39
0.72
-0.88
-2.18
-3.10
-3.75
-4.35
-5.12
-6.24
-7.74
-9.49
-11.27
-12.78
-13.72
-13.81
-12.94
-11.12
-8.60
-5.69
-2.79
-0.19
1.90
3.39
4.24
4.43
3.96
2.92
1.46
-0.16
-1.69
-2.93
-3.79
-4.30
-4.57
-4.76
-5.04
-5.51
-6.26
-7.21
-8.16
-8.78
-8.69
-7.60
-5.44
-2.41
1.07
4.50
7.50
9.84
11.49
12.52
12.99
12.99
12.60
11.97
11.33
10.87
10.73
10.85
11.07
11.19
11.08
10.70
10.13
9.41
8.59
7.68
6.74
5.94
5.50
5.59
6.28
7.45
8.85
10.25
11.44
12.34
12.93
13.14
12.89
12.11
10.81
9.14
7.33
5.59
4.08
2.78
1.61
0.40
-0.94
-2.43
-4.01
-5.58
-7.02
-8.21
-9.06
-9.46
-9.34
-8.66
-7.46
-5.84
-4.00
-2.17
-0.59
0.58
1.23
1.37
1.07
0.41
-0.47
-1.44
-2.41
-3.28
-4.06
-4.79
-5.53
-6.34
-7.26
-8.25
-9.24
-10.17
-10.96
-11.50
-11.70
-11.44
-10.66
-9.38
-7.71
-5.84
-3.98
-2.28
-0.87
0.14
0.62
0.44
-0.43
-1.88
-3.64
-5.39
-6.82
-7.76
-8.23
-8.36
-8.38
-8.52
-8.92
-9.62
-10.51
-11.33
-11.74
-11.44
-10.25
-8.22
-5.62
-2.78
0.00
2.52
4.66
6.33
7.44
7.88
7.65
6.91
5.91
5.00
4.39
4.12
4.04
3.85
3.29
2.21
0.66
-1.14
-2.85
-4.10
-4.58
-4.14
-2.83
-0.88
1.38
3.58
5.44
6.76
7.48
7.65
7.34
6.68
5.78
4.72
3.60
2.45
1.34
0.29
-0.68
-1.62
-2.64
-3.89
-5.49
-7.42
-9.51
-11.44
-12.85
-13.43
-13.04
-11.75
-9.80
-7.49
-5.14
-2.98
-1.16
0.21
1.03
1.25
0.86
-0.03
-1.20
-2.37
-3.25
-3.72
-3.80
-3.67
-3.53
-3.53
-3.76
-4.18
-4.63
-4.95
-4.91
-4.37
-3.31
-1.77
0.09
2.11
4.16
6.12
7.91
9.44
10.57
11.28
11.58
11.60
11.52
11.44
11.39
11.30
11.10
10.77
10.36
9.96
9.63
9.38
9.13
8.79
8.29
7.69
7.17
6.98
7.34
8.32
9.79
11.42
12.86
13.83
14.22
14.10
13.59
12.78
11.69
10.29
8.59
6.72
4.88
3.24
1.87
0.65
-0.63
-2.13
-3.88
-5.74
-7.45
-8.76
-9.48
-9.55
-8.99
-7.85
-6.21
-4.19
-1.95
0.25
2.09
3.32
3.75
3.41
2.47
1.20
-0.16
-1.41
-2.50
-3.46
-4.33
-5.13
-5.91
-6.72
-7.66
-8.82
-10.24
-11.84
-13.39
-14.54
-14.98
-14.45
-12.91
-10.49
-7.47
-4.23
-1.14
1.44
3.23
4.07
3.97
3.10
1.75
0.27
-1.08
-2.17
-3.05
-3.83
-4.60
-5.41
-6.25
-7.12
-7.99
-8.86
-9.60
-9.97
-9.73
-8.64
-6.67
-4.00
-1.01
1.85
4.18
5.72
6.34
6.04
4.92
3.18
1.15
-0.81
-2.39
-3.44
-4.03
-4.39
-4.83
-5.55
-6.60
-7.84
-9.12
-10.27
-11.21
-11.86
-12.12
-11.83
-10.81
-9.02
-6.58
-3.82
-1.16
1.04
2.53
3.22
3.18
2.57
1.59
0.48
-0.51
-1.21
-1.51
-1.45
-1.18
-0.91
-0.85
-1.12
-1.73
-2.55
-3.31
-3.68
-3.36
-2.19
-0.18
2.44
5.37
8.28
10.96
13.28
15.16
16.54
17.38
17.65
17.44
16.90
16.24
15.59
15.05
14.58
14.13
13.62
12.99
12.22
11.26
10.09
8.74
7.36
6.16
5.35
5.11
5.46
6.35
7.60
9.02
10.42
11.60
12.36
12.55
12.04
10.83
9.07
6.99
4.87
2.93
1.30
-0.01
-1.03
-1.87
-2.60
-3.33
-4.17
-5.19
-6.45
-7.90
-9.35
-10.52
-11.09
-10.86
-9.75
-7.96
-5.84
-3.78
-2.18
-1.26
-1.10
-1.60
-2.59
-3.88
-5.27
-6.56
-7.59
-8.25
-8.56
-8.65
-8.76
-9.16
-10.00
-11.31
-12.89
-14.42
-15.48
-15.71
-14.95
-13.22
-10.73
-7.77
-4.67
-1.65
1.06
3.28
4.83
5.58
5.49
4.68
3.42
2.02
0.71
-0.44
-1.46
-2.41
-3.32
-4.20
-5.06
-5.97
-7.03
-8.25
-9.48
-10.43
-10.77
-10.28
-8.96
-7.06
-4.90
-2.81
-1.00
0.40
1.30
1.63
1.31
0.40
-0.94
-2.39
-3.62
-4.35
-4.55
-4.34
-4.03
-3.94
-4.30
-5.13
-6.26
-7.34
-7.96
-7.80
-6.71
-4.77
-2.25
0.53
3.26
5.77
7.99
9.90
11.45
12.56
13.10
13.02
12.38
11.41
10.38
9.52
8.94
8.58
8.28
7.85
7.19
6.29
5.28
4.36
3.71
3.49
3.86
4.90
6.63
8.97
11.73
14.63
17.34
19.61
21.22
22.05
22.05
21.18
19.47
17.08
14.30
11.51
9.10
7.29
6.09
5.24
4.42
3.35
1.87
0.01
-2.13
-4.43
-6.75
-8.95
-10.82
-12.08
-12.52
-12.00
-10.59
-8.56
-6.27
-4.11
-2.33
-1.09
-0.42
-0.25
-0.46
-0.97
-1.69
-2.55
-3.50
-4.47
-5.43
-6.36
-7.29
-8.30
-9.43
-10.67
-11.90
-12.88
-13.34
-13.03
-11.84
-9.85
-7.27
-4.39
-1.52
1.09
3.24
4.77
5.59
5.67
5.05
3.84
2.22
0.38
-1.45
-3.11
-4.49
-5.54
-6.34
-7.04
-7.87
-9.00
-10.50
-12.19
-13.71
-14.58
-14.44
-13.17
-10.90
-8.02
-4.96
-2.08
0.39
2.35
3.76
4.54
4.65
4.10
3.04
1.72
0.48
-0.41
-0.83
-0.80
-0.47
-0.06
0.18
0.08
-0.49
-1.47
-2.63
-3.58
-3.91
-3.27
-1.57
1.05
4.28
7.72
11.01
13.89
16.22
17.90
18.89
19.16
18.77
17.84
16.53
15.03
13.48
11.96
10.50
9.15
7.93
6.86
5.91
4.99
3.90
2.46
0.61
-1.54
-3.62
-5.21
-5.92
-5.59
-4.32
-2.40
-0.22
1.88
3.61
4.77
5.22
4.88
3.80
2.13
0.16
-1.79
-3.43
-4.60
-5.35
-5.83
-6.27
-6.84
-7.65
-8.66
-9.80
-10.92
-11.84
-12.30
-12.07
-10.96
-8.97
-6.29
-3.29
-0.42
1.95
3.62
4.58
4.92
4.73
4.05
2.93
1.45
-0.20
-1.78
-3.12
-4.12
-4.89
-5.58
-6.38
-7.39
-8.63
-10.08
-11.57
-12.94
-13.94
-14.34
-13.94
-12.69
-10.67
-8.10
-5.27
-2.47
0.06
2.13
3.63
4.49
4.72
4.40
3.75
2.98
2.29
1.78
1.44
1.21
1.01
0.85
0.78
0.88
1.11
1.39
1.55
1.52
1.41
1.49
2.15
3.65
5.98
8.87
11.86
14.50
16.55
17.94
18.73
18.96
18.63
17.68
16.17
14.28
12.32
10.57
9.22
8.24
7.43
6.51
5.22
3.50
1.40
-0.91
-3.21
-5.30
-7.01
-8.19
-8.71
-8.49
-7.54
-5.99
-4.07
-2.09
-0.37
0.90
1.63
1.85
1.64
1.09
0.23
-0.87
-2.11
-3.28
-4.21
-4.75
-4.90
-4.85
-4.87
-5.24
-6.09
-7.39
-8.92
-10.35
-11.33
-11.57
-10.92
-9.37
-7.03
-4.15
-1.04
1.94
4.49
6.36
7.39
7.56
6.92
5.65
3.97
2.11
0.32
-1.23
-2.42
-3.20
-3.64
-3.93
-4.30
-4.98
-6.11
-7.64
-9.37
-10.97
-12.13
-12.59
-12.31
-11.37
-9.99
-8.41
-6.79
-5.25
-3.82
-2.51
-1.28
-0.14
0.87
1.69
2.26
2.55
2.59
2.44
2.19
1.95
1.80
1.76
1.82
1.90
1.88
1.67
1.20
0.55
-0.04
-0.22
0.41
2.05
4.61
7.68
10.71
13.17
14.79
15.57
15.71
15.41
14.82
13.96
12.87
11.63
10.42
9.40
8.65
8.11
7.61
6.94
5.96
4.62
2.98
1.12
-0.81
-2.67
-4.27
-5.44
-6.09
-6.21
-5.88
-5.24
-4.42
-3.52
-2.58
-1.66
-0.86
-0.33
-0.20
-0.51
-1.18
-2.04
-2.88
-3.56
-4.06
-4.46
-4.90
-5.45
-6.20
-7.17
-8.40
-9.83
-11.38
-12.83
-13.89
-14.22
-13.59
-11.92
-9.34
-6.17
-2.83
0.32
2.96
4.91
6.09
6.48
6.13
5.11
3.59
1.83
0.09
-1.35
-2.34
-2.90
-3.18
-3.45
-4.00
-5.03
-6.56
-8.37
-10.11
-11.30
-11.59
-10.80
-8.98
-6.45
-3.61
-0.85
1.56
3.46
4.84
5.72
6.16
6.21
5.95
5.43
4.75
4.04
3.41
2.97
2.74
2.65
2.58
2.41
2.02
1.42
0.66
-0.15
-0.88
-1.41
-1.56
-1.19
-0.17
1.55
3.82
6.38
8.88
11.00
12.52
13.38
13.60
13.24
12.36
11.05
9.39
7.54
5.68
3.97
2.49
1.21
0.04
-1.12
-2.35
-3.69
-5.14
-6.65
-8.14
-9.45
-10.33
-10.53
-9.92
-8.48
-6.44
-4.14
-1.91
0.00
1.48
2.52
3.15
3.38
3.18
2.53
1.50
0.26
-0.98
-2.01
-2.72
-3.12
-3.37
-3.69
-4.29
-5.30
-6.74
-8.45
-10.16
-11.52
-12.18
-11.92
-10.72
-8.73
-6.28
-3.71
-1.33
0.70
2.32
3.51
4.27
4.56
4.35
3.65
2.61
1.46
0.47
-0.11
-0.23
-0.01
0.28
0.36
0.02
-0.70
-1.64
-2.51
-3.04
-3.05
-2.44
-1.21
0.55
2.72
5.10
7.51
9.72
11.55
12.90
13.74
14.09
14.02
13.55
12.72
11.54
10.08
8.44
6.76
5.14
3.65
2.25
0.84
-0.64
-2.19
-3.73
-5.07
-6.05
-6.55
-6.50
-5.88
-4.71
-3.06
-1.06
1.08
3.08
4.68
5.70
6.06
5.82
5.12
4.10
2.94
1.78
0.74
-0.12
-0.78
-1.24
-1.57
-1.85
-2.18
-2.69
-3.52
-4.75
-6.35
-8.12
-9.71
-10.73
-10.87
-10.09
-8.58
-6.69
-4.76
-2.98
-1.39
0.10
1.50
2.74
3.55
3.70
3.06
1.71
-0.02
-1.77
-3.23
-4.28
-5.02
-5.67
-6.46
-7.53
-8.85
-10.29
-11.62
-12.61
-13.07
-12.88
-11.98
-10.40
-8.28
-5.83
-3.33
-0.98
1.08
2.83
4.29
5.50
6.43
7.04
7.31
7.26
6.93
6.42
5.77
5.06
4.34
3.70
3.25
3.04
3.06
3.20
3.30
3.30
3.25
3.31
3.71
4.64
6.19
8.28
10.74
13.31
15.69
17.66
19.05
19.78
19.85
19.26
18.05
16.24
13.91
11.18
8.27
5.41
2.83
0.67
-0.99
-2.18
-2.98
-3.49
-3.84
-4.17
-4.52
-4.91
-5.25
-5.42
-5.33
-4.91
-4.20
-3.25
-2.19
-1.12
-0.19
0.52
0.89
0.84
0.33
-0.60
-1.84
-3.20
-4.48
-5.50
-6.23
-6.75
-7.22
-7.79
-8.55
-9.47
-10.49
-11.48
-12.38
-13.04
-13.32
-13.02
-12.02
-10.32
-8.12
-5.74
-3.54
-1.75
-0.46
0.35
0.75
0.74
0.33
-0.47
-1.57
-2.82
-4.01
-4.95
-5.54
-5.76
-5.67
-5.40
-5.11
-5.01
-5.26
-5.88
-6.72
-7.46
-7.73
-7.21
-5.81
-3.67
-1.07
1.62
4.15
6.37
8.19
9.57
10.47
10.82
10.64
10.03
9.20
8.40
7.83
7.57
7.60
7.78
7.97
8.07
8.06
7.93
7.70
7.35
6.80
6.12
5.43
4.99
5.10
5.93
7.45
9.46
11.59
13.50
14.99
16.00
16.55
16.66
16.26
15.30
13.72
11.64
9.32
7.08
5.20
3.78
2.75
1.89
1.01
-0.09
-1.48
-3.12
-4.93
-6.76
-8.38
-9.55
-10.02
-9.63
-8.42
-6.60
-4.52
-2.56
-0.99
0.09
0.73
1.05
1.19
1.13
0.83
0.20
-0.76
-1.91
-3.05
-3.95
-4.49
-4.74
-4.88
-5.17
-5.78
-6.72
-7.89
-9.02
-9.84
-10.11
-9.68
-8.53
-6.77
-4.60
-2.30
-0.14
1.67
3.01
3.86
4.26
4.33
4.21
4.03
3.79
3.41
2.65
1.26
-0.95
-3.96
-7.50
-11.16
-14.48
-17.14
-18.99
-20.08
-20.55
-20.50
-19.95
-18.82
-17.04
-14.59
-11.57
-8.20
-4.74
-1.46
1.43
3.80
5.53
6.59
6.96
6.70
5.93
4.89
3.84
3.04
2.67
2.71
3.00
3.26
3.21
2.70
1.77
0.64
-0.35
-0.86
-0.70
0.13
1.48
3.10
4.77
6.32
7.67
8.78
9.55
9.81
9.44
8.37
6.72
4.76
2.78
1.04
-0.37
-1.51
-2.53
-3.57
-4.73
-6.06
-7.57
-9.21
-10.90
-12.44
-13.59
-14.09
-13.77
-12.57
-10.62
-8.14
-5.40
-2.65
-0.14
1.97
3.51
4.41
4.72
4.56
4.16
3.71
3.32
3.01
2.69
2.31
1.84
1.33
0.87
0.54
0.31
0.11
-0.15
-0.47
-0.76
-0.80
-0.36
0.71
2.46
4.76
7.35
9.95
12.30
14.23
15.62
16.44
16.69
16.42
15.70
14.68
13.54
12.42
11.47
10.74
10.21
9.84
9.50
9.08
8.49
7.63
6.44
4.93
3.22
1.52
0.14
-0.65
-0.64
0.22
1.79
3.80
5.90
7.75
9.03
9.54
9.20
8.09
6.40
4.40
2.33
0.44
-1.14
-2.34
-3.18
-3.75
-4.20
-4.72
-5.44
-6.44
-7.67
-8.98
-10.18
-11.03
-11.31
-10.90
-9.79
-8.08
-6.02
-3.89
-1.97
-0.43
0.69
1.43
1.88
2.05
1.95
1.53
0.78
-0.22
-1.31
-2.36
-3.29
-4.11
-4.92
-5.80
-6.78
-7.84
-8.89
-9.85
-10.67
-11.25
-11.48
-11.15
-10.09
-8.23
-5.68
-2.73
0.21
2.80
4.78
6.03
6.53
6.27
5.32
3.82
2.04
0.28
-1.17
-2.17
-2.72
-2.99
-3.16
-3.44
-3.94
-4.70
-5.67
-6.76
-7.79
-8.53
-8.78
-8.41
-7.45
-6.08
-4.52
-3.03
-1.77
-0.83
-0.27
-0.08
-0.25
-0.75
-1.48
-2.27
-2.88
-3.10
-2.78
-1.98
-0.89
0.18
0.94
1.22
0.98
0.30
-0.68
-1.78
-2.81
-3.51
-3.62
-2.91
-1.27
1.16
4.06
6.96
9.43
11.20
12.18
12.48
12.25
11.64
10.76
9.70
8.55
7.47
6.58
5.98
5.62
5.36
5.03
4.48
3.67
2.62
1.38
-0.01
-1.49
-2.96
-4.20
-4.93
-4.92
-4.04
-2.37
-0.17
2.21
4.40
6.10
7.08
7.20
6.43
4.90
2.82
0.51
-1.66
-3.43
-4.60
-5.15
-5.15
-4.82
-4.42
-4.21
-4.40
-5.10
-6.24
-7.63
-8.97
-9.99
-10.45
-10.21
-9.25
-7.66
-5.60
-3.28
-0.94
1.23
3.07
4.45
5.27
5.47
5.02
3.98
2.52
0.90
-0.58
-1.70
-2.34
-2.61
-2.75
-3.06
-3.78
-5.01
-6.63
-8.38
-9.89
-10.84
-11.01
-10.33
-8.84
-6.71
-4.14
-1.34
1.44
3.94
5.96
7.30
7.89
7.78
7.09
6.02
4.75
3.45
2.19
1.07
0.09
-0.75
-1.49
-2.20
-2.98
-3.92
-5.12
-6.58
-8.21
-9.77
-10.94
-11.38
-10.83
-9.27
-6.93
-4.20
-1.53
0.75
2.48
3.62
4.25
4.38
4.04
3.25
2.14
0.90
-0.26
-1.18
-1.83
-2.29
-2.68
-3.10
-3.57
-4.05
-4.48
-4.85
-5.22
-5.61
-5.92
-5.93
-5.37
-4.05
-1.93
0.75
3.65
6.36
8.61
10.25
11.27
11.76
11.85
11.65
11.28
10.85
10.40
9.99
9.59
9.24
8.95
8.76
8.65
8.58
8.44
8.12
7.55
6.67
5.50
4.11
2.72
1.65
1.24
1.76
3.23
5.38
7.77
9.90
11.43
12.25
12.42
12.08
11.31
10.14
8.60
6.78
4.86
3.10
1.68
0.70
0.13
-0.17
-0.36
-0.57
-0.91
-1.48
-2.31
-3.48
-4.99
-6.73
-8.48
-9.93
-10.70
-10.55
-9.42
-7.47
-5.05
-2.55
-0.30
1.49
2.72
3.34
3.33
2.72
1.62
0.20
-1.26
-2.57
-3.55
-4.17
-4.45
-4.49
-4.37
-4.23
-4.18
-4.37
-4.87
-5.72
-6.82
-8.03
-9.10
-9.79
-9.87
-9.21
-7.81
-5.81
-3.45
-1.05
1.15
2.98
4.38
5.36
5.88
5.95
5.58
4.82
3.79
2.64
1.55
0.61
-0.12
-0.67
-1.13
-1.58
-2.08
-2.63
-3.22
-3.89
-4.73
-5.89
-7.43
-9.21
-10.86
-11.85
-11.72
-10.30
-7.81
-4.74
-1.71
0.83
2.67
3.83
4.45
4.68
4.55
4.12
3.42
2.58
1.79
1.26
1.09
1.27
1.68
2.11
2.39
2.43
2.21
1.78
1.24
0.65
0.01
-0.64
-1.27
-1.74
-1.84
-1.37
-0.18
1.71
4.11
6.68
9.10
11.09
12.50
13.31
13.56
13.32
12.67
11.70
10.55
9.38
8.34
7.51
6.92
6.51
6.19
5.86
5.40
4.74
3.84
2.70
1.39
0.01
-1.38
-2.77
-4.12
-5.40
-6.46
-7.06
-6.98
-6.09
-4.44
-2.29
-0.01
2.02
3.52
4.33
4.46
4.02
3.20
2.17
1.10
0.10
-0.79
-1.58
-2.25
-2.83
-3.29
-3.63
-3.87
-4.05
-4.26
-4.55
-4.97
-5.50
-6.12
-6.79
-7.44
-7.98
-8.29
-8.22
-7.60
-6.32
-4.38
-1.95
0.69
3.17
5.18
6.48
7.02
6.89
6.29
5.41
4.39
3.31
2.21
1.16
0.25
-0.47
-1.01
-1.46
-1.97
-2.64
-3.48
-4.38
-5.23
-5.96
-6.60
-7.28
-8.04
-8.82
-9.43
-9.62
-9.23
-8.21
-6.69
-4.87
-2.97
-1.20
0.26
1.26
1.69
1.54
0.91
-0.01
-1.01
-1.87
-2.50
-2.89
-3.09
-3.17
-3.15
-3.03
-2.82
-2.54
-2.24
-2.02
-1.99
-2.22
-2.76
-3.56
-4.45
-5.14
-5.33
-4.80
-3.50
-1.58
0.66
2.89
4.85
6.39
7.48
8.10
8.25
7.94
7.26
6.39
5.56
4.99
4.76
4.83
5.01
5.12
5.05
4.77
4.40
4.00
3.66
3.35
2.99
2.48
1.78
0.94
0.13
-0.44
-0.54
-0.04
1.06
2.60
4.39
6.22
7.93
9.43
10.65
11.47
11.75
11.34
10.25
8.63
6.79
5.08
3.73
2.80
2.15
1.59
0.96
0.18
-0.70
-1.63
-2.53
-3.43
-4.34
-5.33
-6.39
-7.46
-8.44
-9.15
-9.40
-9.06
-8.08
-6.56
-4.73
-2.86
-1.18
0.20
1.30
2.17
2.84
3.19
3.10
2.45
1.27
-0.21
-1.65
-2.77
-3.46
-3.81
-4.04
-4.39
-4.96
-5.71
-6.49
-7.16
-7.73
-8.27
-8.87
-9.52
-10.04
-10.16
-9.63
-8.39
-6.55
-4.37
-2.13
-0.03
1.86
3.51
4.85
5.73
5.99
5.56
4.52
3.11
1.60
0.24
-0.82
-1.54
-1.97
-2.13
-2.11
-2.00
-1.94
-2.10
-2.61
-3.54
-4.84
-6.31
-7.65
-8.54
-8.74
-8.15
-6.89
-5.17
-3.25
-1.34
0.44
2.00
3.21
3.89
3.89
3.19
1.94
0.45
-0.95
-2.05
-2.83
-3.37
-3.78
-4.10
-4.28
-4.29
-4.17
-4.05
-4.12
-4.51
-5.20
-6.00
-6.60
-6.71
-6.11
-4.75
-2.72
-0.26
2.35
4.81
6.89
8.44
9.41
9.86
9.88
9.62
9.25
8.89
8.63
8.49
8.42
8.38
8.30
8.17
7.96
7.64
7.20
6.63
5.96
5.24
4.53
3.83
3.12
2.37
1.60
0.97
0.74
1.15
2.31
4.08
6.11
8.00
9.39
10.13
10.27
9.99
9.46
8.77
7.91
6.86
5.64
4.32
3.05
1.91
0.93
0.04
-0.85
-1.81
-2.86
-3.92
-4.93
-5.88
-6.81
-7.78
-8.78
-9.66
-10.15
-10.01
-9.09
-7.41
-5.19
-2.74
-0.36
1.71
3.29
4.29
4.62
4.28
3.31
1.84
0.10
-1.67
-3.23
-4.41
-5.14
-5.47
-5.51
-5.46
-5.55
-5.95
-6.77
-8.00
-9.43
-10.74
-11.55
-11.53
-10.50
-8.56
-5.94
-2.96
0.05
2.87
5.31
7.20
8.36
8.64
8.00
6.55
4.55
2.35
0.28
-1.44
-2.76
-3.72
-4.46
-5.12
-5.78
-6.51
-7.32
-8.21
-9.16
-10.11
-10.97
-11.60
-11.82
-11.47
-10.47
-8.83
-6.66
-4.15
-1.52
0.95
3.04
4.56
5.40
5.60
5.33
4.80
4.26
3.88
3.73
3.79
3.98
4.20
4.37
4.43
4.39
4.31
4.22
4.12
3.94
3.55
2.87
1.91
0.88
0.14
0.08
1.00
2.96
5.72
8.82
11.75
14.07
15.56
16.16
16.00
15.21
13.94
12.31
10.49
8.67
7.06
5.84
5.08
4.69
4.48
4.22
3.75
2.99
1.98
0.72
-0.76
-2.47
-4.33
-6.14
-7.59
-8.35
-8.16
-6.96
-4.92
-2.38
0.20
2.46
4.12
5.09
5.43
5.29
4.82
4.09
3.11
1.85
0.39
-1.09
-2.32
-3.13
-3.50
-3.65
-3.88
-4.43
-5.34
-6.44
-7.54
-8.50
-9.30
-10.02
-10.62
-10.94
-10.68
-9.56
-7.55
-4.86
-1.96
0.71
2.78
4.14
4.82
4.94
4.59
3.86
2.80
1.56
0.31
-0.76
-1.54
-2.04
-2.34
-2.56
-2.78
-3.05
-3.43
-4.01
-4.91
-6.18
-7.71
-9.21
-10.22
-10.31
-9.25
-7.10
-4.18
-0.96
2.14
4.78
6.76
8.00
8.45
8.18
7.29
5.99
4.51
3.05
1.74
0.59
-0.40
-1.26
-2.01
-2.69
-3.39
-4.21
-5.31
-6.77
-8.56
-10.50
-12.30
-13.60
-14.09
-13.60
-12.12
-9.80
-6.92
-3.77
-0.68
2.03
4.13
5.43
5.91
5.69
5.01
4.14
3.33
2.71
2.30
2.08
1.99
2.01
2.12
2.33
2.58
2.78
2.80
2.49
1.81
0.82
-0.24
-1.07
-1.34
-0.88
0.35
2.27
4.75
7.60
10.63
13.56
16.03
17.73
18.45
18.24
17.36
16.13
14.83
13.57
12.33
11.07
9.82
8.63
7.62
6.84
6.23
5.70
5.11
4.34
3.30
1.92
0.20
-1.76
-3.69
-5.27
-6.12
-6.03
-4.95
-3.10
-0.78
1.61
3.74
5.35
6.27
6.43
5.88
4.77
3.30
1.70
0.14
-1.31
-2.63
-3.83
-4.88
-5.70
-6.21
-6.39
-6.28
-6.07
-5.97
-6.16
-6.74
-7.65
-8.70
-9.65
-10.18
-10.08
-9.15
-7.38
-4.92
-2.06
0.77
3.16
4.80
5.55
5.43
4.61
3.32
1.85
0.42
-0.78
-1.67
-2.30
-2.76
-3.20
-3.73
-4.39
-5.14
-5.98
-6.95
-8.16
-9.66
-11.38
-13.04
-14.25
-14.62
-13.94
-12.28
-9.95
-7.34
-4.88
-2.79
-1.18
-0.06
0.64
0.94
0.91
0.54
-0.07
-0.85
-1.64
-2.27
-2.60
-2.61
-2.40
-2.17
-2.15
-2.42
-2.94
-3.54
-4.03
-4.35
-4.53
-4.66
-4.70
-4.49
-3.75
-2.27
-0.02
2.78
5.76
8.49
10.67
12.17
13.01
13.30
13.14
12.65
11.93
11.08
10.27
9.62
9.26
9.20
9.36
9.60
9.74
9.61
9.12
8.32
7.27
6.11
4.87
3.63
2.41
1.32
0.54
0.29
0.73
1.91
3.68
5.76
7.79
9.46
10.58
11.09
11.05
10.57
9.75
8.63
7.22
5.53
3.65
1.74
0.04
-1.30
-2.23
-2.86
-3.37
-3.96
-4.73
-5.67
-6.72
-7.83
-9.00
-10.16
-11.18
-11.77
-11.64
-10.63
-8.78
-6.41
-3.93
-1.73
0.03
1.31
2.21
2.76
2.95
2.69
1.95
0.85
-0.43
-1.63
-2.57
-3.18
-3.50
-3.66
-3.80
-4.07
-4.57
-5.35
-6.39
-7.61
-8.86
-9.96
-10.73
-11.04
-10.82
-10.04
-8.71
-6.90
-4.71
-2.36
-0.12
1.71
2.86
3.22
2.82
1.87
0.66
-0.58
-1.67
-2.56
-3.31
-3.96
-4.56
-5.10
-5.59
-6.03
-6.48
-7.01
-7.67
-8.46
-9.32
-10.19
-10.94
-11.47
-11.62
-11.28
-10.27
-8.51
-6.00
-2.94
0.35
3.40
5.82
7.35
7.96
7.83
7.26
6.55
5.93
5.48
5.19
4.99
4.83
4.70
4.64
4.66
4.73
4.80
4.80
4.66
4.34
3.82
3.15
2.43
1.87
1.69
2.13
3.29
5.13
7.44
9.89
12.17
14.05
15.42
16.24
16.53
16.34
15.69
14.64
13.26
11.67
10.04
8.55
7.33
6.45
5.87
5.44
4.96
4.28
3.33
2.15
0.82
-0.57
-2.01
-3.50
-5.01
-6.37
-7.31
-7.52
-6.79
-5.14
-2.86
-0.37
1.86
3.52
4.52
4.93
4.86
4.36
3.44
2.11
0.49
-1.22
-2.80
-4.09
-5.03
-5.71
-6.22
-6.60
-6.91
-7.14
-7.35
-7.66
-8.18
-8.97
-9.99
-11.04
-11.84
-12.08
-11.46
-9.87
-7.42
-4.45
-1.39
1.31
3.35
4.63
5.23
5.27
4.93
4.30
3.49
2.58
1.65
0.77
-0.09
-0.93
-1.75
-2.57
-3.35
-4.10
-4.89
-5.76
-6.74
-7.83
-8.93
-9.90
-10.55
-10.70
-10.23
-9.05
-7.24
-4.95
-2.48
-0.18
1.63
2.75
3.10
2.80
2.02
0.98
-0.15
-1.25
-2.27
-3.14
-3.79
-4.18
-4.29
-4.22
-4.10
-4.11
-4.34
-4.85
-5.58
-6.45
-7.33
-8.03
-8.39
-8.21
-7.35
-5.77
-3.56
-0.90
1.93
4.65
6.99
8.74
9.77
10.11
9.87
9.26
8.49
7.74
7.08
6.54
6.15
5.94
5.94
6.15
6.49
6.82
6.97
6.81
6.23
5.24
3.91
2.44
1.12
0.27
0.16
0.90
2.41
4.41
6.54
8.42
9.82
10.60
10.81
10.51
9.85
8.94
7.87
6.69
5.43
4.09
2.71
1.32
0.03
-1.07
-1.89
-2.44
-2.75
-2.95
-3.19
-3.62
-4.37
-5.43
-6.71
-7.89
-8.62
-8.58
-7.58
-5.75
-3.44
-1.12
0.82
2.16
2.92
3.21
3.14
2.73
1.92
0.71
-0.77
-2.25
-3.43
-4.08
-4.19
-3.95
-3.67
-3.61
-3.93
-4.61
-5.51
-6.51
-7.48
-8.28
-8.79
-8.80
-8.18
-6.84
-4.88
-2.53
-0.09
2.13
3.93
5.20
5.93
6.15
5.90
5.23
4.21
2.93
1.53
0.14
-1.12
-2.21
-3.12
-3.89
-4.58
-5.23
-5.88
-6.54
-7.27
-8.13
-9.16
-10.25
-11.22
-11.77
-11.61
-10.58
-8.72
-6.23
-3.44
-0.70
1.68
3.48
4.57
5.00
4.91
4.51
4.01
3.54
3.10
2.64
2.13
1.60
1.18
0.94
0.89
0.92
0.89
0.69
0.35
-0.07
-0.47
-0.83
-1.12
-1.28
-1.14
-0.49
0.89
3.06
5.84
8.88
11.76
14.09
15.61
16.24
16.05
15.16
13.80
12.18
10.51
8.93
7.51
6.28
5.21
4.22
3.24
2.22
1.14
0.06
-1.00
-1.97
-2.88
-3.75
-4.59
-5.33
-5.83
-5.88
-5.31
-4.08
-2.29
-0.21
1.85
3.59
4.78
5.29
5.12
4.33
3.07
1.56
0.02
-1.29
-2.21
-2.66
-2.69
-2.47
-2.24
-2.23
-2.58
-3.34
-4.40
-5.63
-6.90
-8.15
-9.32
-10.32
-10.95
-10.89
-9.90
-7.87
-5.01
-1.79
1.17
3.36
4.53
4.70
4.15
3.18
2.06
0.92
-0.17
-1.15
-1.91
-2.34
-2.35
-1.97
-1.38
-0.84
-0.62
-0.89
-1.66
-2.81
-4.12
-5.38
-6.39
-7.02
-7.15
-6.69
-5.61
-3.96
-1.86
0.43
2.65
4.55
5.96
6.79
7.00
6.59
5.59
4.06
2.17
0.20
-1.55
-2.76
-3.31
-3.33
-3.08
-2.92
-3.07
-3.61
-4.42
-5.38
-6.40
-7.46
-8.55
-9.54
-10.15
-10.02
-8.88
-6.68
-3.69
-0.36
2.81
5.41
7.29
8.41
8.88
8.85
8.47
7.89
7.29
6.78
6.45
6.30
6.25
6.19
6.10
5.97
5.85
5.80
5.82
5.83
5.69
5.28
4.51
3.39
2.09
0.87
0.06
-0.10
0.54
1.97
3.98
6.27
8.51
10.37
11.65
12.28
12.28
11.74
10.82
9.63
8.26
6.76
5.21
3.70
2.37
1.34
0.64
0.20
-0.16
-0.63
-1.34
-2.29
-3.43
-4.66
-5.96
-7.29
-8.60
-9.74
-10.46
-10.43
-9.48
-7.59
-5.02
-2.18
0.46
2.52
3.77
4.18
3.84
3.01
1.93
0.89
0.09
-0.42
-0.69
-0.87
-1.13
-1.57
-2.16
-2.80
-3.36
-3.76
-4.06
-4.39
-4.91
-5.70
-6.69
-7.65
-8.32
-8.47
-8.02
-6.95
-5.37
-3.38
-1.13
1.20
3.37
5.12
6.22
6.53
6.10
5.14
3.89
2.62
1.51
0.61
-0.09
-0.65
-1.16
-1.72
-2.39
-3.19
-4.10
-5.09
-6.13
-7.21
-8.33
-9.44
-10.40
-11.02
-11.06
-10.35
-8.90
-6.84
-4.49
-2.13
0.00
1.79
3.21
4.26
4.91
5.14
4.94
4.39
3.65
2.95
2.44
2.24
2.28
2.47
2.70
2.88
2.97
2.98
2.91
2.80
2.71
2.67
2.65
2.56
2.30
1.88
1.45
1.29
1.69
2.82
4.61
6.83
9.14
11.30
13.14
14.57
15.49
15.79
15.36
14.21
12.47
10.43
8.39
6.62
5.26
4.33
3.72
3.22
2.62
1.68
0.34
-1.34
-3.17
-4.95
-6.53
-7.91
-9.17
-10.33
-11.34
-11.99
-12.06
-11.43
-10.12
-8.34
-6.38
-4.51
-2.90
-1.63
-0.69
-0.07
0.19
0.08
-0.38
-1.07
-1.81
-2.41
-2.75
-2.83
-2.77
-2.74
-2.86
-3.17
-3.62
-4.11
-4.60
-5.09
-5.66
-6.34
-7.09
-7.74
-8.04
-7.70
-6.58
-4.74
-2.46
-0.13
1.89
3.40
4.40
4.99
5.31
5.38
5.19
4.70
3.94
3.08
2.25
1.56
1.01
0.52
-0.00
-0.58
-1.14
-1.64
-2.05
-2.42
-2.89
-3.54
-4.37
-5.25
-5.93
-6.13
-5.65
-4.42
-2.55
-0.32
1.92
3.87
5.30
6.15
6.46
6.29
5.76
4.96
4.03
3.10
2.32
1.73
1.29
0.88
0.36
-0.34
-1.21
-2.18
-3.17
-4.13
-5.06
-5.93
-6.71
-7.31
-7.62
-7.54
-7.03
-6.09
-4.79
-3.19
-1.40
0.49
2.28
3.79
4.80
5.19
4.98
4.31
3.43
2.58
1.86
1.26
0.71
0.13
-0.44
-0.90
-1.19
-1.33
-1.48
-1.88
-2.67
-3.85
-5.23
-6.46
-7.19
-7.16
-6.23
-4.43
-1.99
0.76
3.37
5.46
6.80
7.42
7.50
7.36
7.21
7.12
7.02
6.84
6.57
6.27
6.06
5.99
6.00
6.00
5.88
5.63
5.27
4.89
4.49
4.00
3.33
2.44
1.42
0.53
0.08
0.32
1.33
2.93
4.79
6.53
7.89
8.74
9.11
9.11
8.81
8.24
7.38
6.26
4.97
3.63
2.35
1.20
0.17
-0.81
-1.77
-2.73
-3.63
-4.42
-5.09
-5.68
-6.28
-6.95
-7.64
-8.20
-8.39
-8.00
-6.95
-5.39
-3.56
-1.79
-0.32
0.73
1.33
1.49
1.26
0.65
-0.28
-1.41
-2.63
-3.78
-4.72
-5.36
-5.68
-5.73
-5.62
-5.51
-5.55
-5.87
-6.48
-7.30
-8.16
-8.83
-9.09
-8.77
-7.80
-6.22
-4.21
-2.02
0.07
1.83
3.11
3.85
4.05
3.76
3.03
1.99
0.76
-0.45
-1.48
-2.26
-2.77
-3.09
-3.34
-3.64
-4.08
-4.76
-5.71
-6.88
-8.14
-9.25
-9.95
-10.02
-9.32
-7.90
-5.91
-3.62
-1.29
0.79
2.42
3.45
3.84
3.62
2.89
1.80
0.50
-0.83
-2.05
-3.03
-3.70
-4.08
-4.23
-4.25
-4.22
-4.21
-4.25
-4.41
-4.75
-5.32
-6.03
-6.68
-6.98
-6.59
-5.36
-3.36
-0.86
1.74
4.08
5.94
7.26
8.07
8.50
8.66
8.63
8.47
8.20
7.85
7.50
7.21
7.03
6.98
7.00
7.01
6.94
6.76
6.47
6.09
5.62
4.99
4.21
3.31
2.49
2.02
2.15
3.03
4.61
6.65
8.77
10.62
11.98
12.75
12.97
12.78
12.28
11.54
10.56
9.36
7.99
6.55
5.17
3.93
2.87
1.93
1.08
0.29
-0.41
-1.04
-1.70
-2.56
-3.74
-5.24
-6.85
-8.17
-8.81
-8.49
-7.22
-5.24
-2.92
-0.64
1.34
2.89
3.96
4.52
4.56
4.11
3.24
2.10
0.85
-0.31
-1.25
-1.92
-2.35
-2.66
-3.00
-3.46
-4.04
-4.68
-5.29
-5.85
-6.42
-7.09
-7.87
-8.66
-9.20
-9.19
-8.37
-6.68
-4.31
-1.62
0.95
3.00
4.31
4.82
4.61
3.83
2.69
1.37
0.08
-0.99
-1.69
-1.98
-1.95
-1.80
-1.81
-2.21
-3.12
-4.50
-6.17
-7.89
-9.44
-10.65
-11.42
-11.64
-11.24
-10.12
-8.24
-5.71
-2.77
0.24
2.99
5.25
6.92
8.00
8.59
8.73
8.46
7.82
6.88
5.75
4.64
3.69
2.97
2.44
1.93
1.20
0.12
-1.33
-2.98
-4.62
-6.07
-7.26
-8.24
-9.05
-9.61
-9.74
-9.24
-8.00
-6.09
-3.79
-1.47
0.56
2.10
3.11
3.62
3.71
3.43
2.83
1.99
1.01
-0.01
-0.98
-1.82
-2.49
-2.98
-3.29
-3.46
-3.56
-3.70
-4.01
-4.56
-5.41
-6.45
-7.48
-8.25
-8.47
-7.96
-6.67
-4.72
-2.30
0.36
3.04
5.55
7.72
9.42
10.55
11.11
11.20
10.96
10.60
10.24
9.90
9.59
9.31
9.10
9.05
9.23
9.64
10.15
10.56
10.71
10.51
9.97
9.16
8.11
6.88
5.56
4.33
3.48
3.30
3.98
5.52
7.63
9.90
11.86
13.12
13.48
12.97
11.80
10.27
8.68
7.25
6.07
5.10
4.21
3.29
2.28
1.19
0.10
-0.90
-1.75
-2.39
-2.85
-3.17
-3.46
-3.86
-4.51
-5.50
-6.78
-8.18
-9.41
-10.14
-10.08
-9.12
-7.31
-4.89
-2.25
0.20
2.13
3.32
3.74
3.51
2.80
1.79
0.65
-0.53
-1.67
-2.70
-3.56
-4.23
-4.73
-5.14
-5.57
-6.06
-6.60
-7.10
-7.48
-7.75
-7.98
-8.32
-8.83
-9.42
-9.87
-9.82
-9.03
-7.38
-5.02
-2.23
0.59
3.05
4.89
5.94
6.17
5.69
4.68
3.41
2.11
0.92
-0.10
-0.97
-1.78
-2.55
-3.31
-4.04
-4.74
-5.43
-6.12
-6.89
-7.76
-8.81
-10.05
-11.44
-12.86
-14.08
-14.79
-14.73
-13.75
-11.91
-9.47
-6.80
-4.26
-2.15
-0.63
0.25
0.51
0.27
-0.31
-1.04
-1.73
-2.26
-2.57
-2.69
-2.71
-2.71
-2.76
-2.88
-3.11
-3.42
-3.79
-4.17
-4.49
-4.73
-4.90
-5.08
-5.29
-5.49
-5.47
-4.99
-3.83
-1.95
0.47
3.11
5.59
7.59
8.92
9.54
9.52
8.99
8.07
6.91
5.64
4.36
3.17
2.11
1.20
0.43
-0.22
-0.78
-1.29
-1.75
-2.20
-2.63
-3.07
-3.55
-4.11
-4.78
-5.55
-6.36
-6.98
-7.17
-6.67
-5.39
-3.40
-0.97
1.51
3.71
5.39
6.50
7.08
7.23
7.04
6.59
6.00
5.43
5.04
4.90
4.97
5.10
5.12
4.95
4.62
4.23
3.84
3.43
2.87
1.98
0.70
-0.93
-2.70
-4.38
-5.70
-6.43
-6.40
-5.53
-3.79
-1.32
1.63
4.69
7.49
9.74
11.31
12.20
12.52
12.43
12.10
11.70
11.37
11.26
11.45
11.94
12.64
13.40
14.01
14.39
14.51
14.49
14.47
14.53
14.66
14.76
14.65
14.24
13.53
12.64
11.80
11.23
11.10
11.50
12.41
13.73
15.27
16.80
18.07
18.86
19.00
18.48
17.39
15.87
14.10
12.20
10.28
8.39
6.56
4.86
3.31
1.93
0.72
-0.36
-1.35
-2.29
-3.22
-4.18
-5.22
-6.43
-7.84
-9.45
-11.18
-12.82
-14.13
-14.85
-14.80
-13.96
-12.44
-10.50
-8.40
-6.38
-4.65
-3.35
-2.62
-2.48
-2.91
-3.76
-4.81
-5.81
-6.60
-7.13
-7.41
-7.53
-7.54
-7.46
-7.31
-7.12
-7.05
-7.24
-7.83
-8.84
-10.14
-11.48
-12.59
-13.24
-13.27
-12.61
-11.29
-9.38
-7.04
-4.50
-2.01
0.15
1.82
2.92
3.46
3.52
3.18
2.54
1.70
0.77
-0.07
-0.73
-1.15
-1.41
-1.67
-2.08
-2.70
-3.45
-4.20
-4.81
-5.31
-5.84
-6.55
-7.48
-8.44
-9.07
-8.96
-7.92
-6.04
-3.69
-1.31
0.73
2.32
3.51
4.44
5.16
5.60
5.62
5.18
4.35
3.38
2.57
2.11
2.03
2.16
2.23
2.09
1.67
1.08
0.46
-0.12
-0.66
-1.31
-2.15
