BVP
64.000000
-0.00
-0.00
-0.00
-0.00
-0.00
-0.00
-0.00
-0.00
-0.00
-0.00
0.00
0.01
0.01
-0.00
-0.03
-0.05
-0.05
0.00
0.13
0.36
0.66
1.01
1.37
1.72
2.06
2.40
2.79
3.24
3.80
4.42
5.06
5.66
6.20
6.68
7.15
7.68
8.31
9.14
10.09
11.04
11.88
12.56
13.14
13.76
14.65
15.96
17.91
20.32
22.90
25.38
27.58
29.57
31.68
34.32
37.81
42.54
48.15
54.10
59.83
64.97
69.58
74.14
79.34
85.71
93.76
103.00
112.62
121.73
129.77
136.75
143.30
150.75
157.77
166.64
177.95
191.79
206.97
220.57
228.25
225.36
208.53
176.87
132.76
80.05
23.07
-34.94
-92.44
-149.16
-205.23
-260.37
-313.74
-363.87
-409.83
-450.91
-486.50
-515.74
-537.23
-549.22
-549.96
-538.37
-514.21
-478.67
-433.88
-382.45
-327.02
-269.84
-212.63
-156.66
-102.95
-52.38
-5.91
35.58
71.44
101.39
125.55
144.41
158.67
169.03
176.12
180.38
182.12
181.59
179.05
174.82
169.27
162.76
155.64
148.17
140.54
132.87
125.20
117.58
110.01
102.48
95.02
87.66
80.49
73.61
67.15
61.17
55.63
50.41
45.34
40.28
35.19
30.21
25.56
21.53
18.23
15.57
13.26
10.87
8.09
4.85
1.42
-1.72
-4.04
-5.31
-5.67
-5.69
-6.08
-7.42
-9.82
-12.85
-15.73
-17.70
-18.34
-17.88
-16.93
-16.30
-16.68
-18.41
-21.59
-26.03
-31.02
-35.11
-36.13
-31.84
-21.00
-4.45
14.80
32.49
44.84
50.15
49.27
44.84
39.69
35.50
32.38
29.55
26.27
22.62
19.39
17.39
16.87
17.22
17.44
16.64
14.60
11.73
8.90
6.87
5.99
6.05
6.45
6.46
5.59
3.81
1.59
-0.31
-1.12
-0.44
1.68
4.70
7.83
10.38
11.96
12.53
12.36
11.73
10.84
9.79
8.62
7.38
6.22
5.33
4.89
5.05
5.81
7.00
8.38
9.66
10.54
10.88
10.58
9.67
8.21
6.31
3.96
1.28
-1.50
-4.14
-6.41
-8.21
-9.60
-10.72
-11.71
-12.66
-13.48
-14.07
-14.35
-14.31
-14.04
-13.67
-13.33
-13.18
-13.27
-13.59
-13.97
-14.12
-13.68
-12.36
-10.05
-6.94
-3.49
-0.22
2.39
4.07
4.86
4.93
4.51
3.77
2.81
1.60
0.24
-1.14
-2.35
-3.16
-3.47
-3.34
-2.92
-2.40
-1.89
-1.40
-0.92
-0.42
0.13
0.69
1.24
1.74
2.11
2.26
2.12
1.65
0.92
0.07
-0.74
-1.39
-1.89
-2.33
-2.90
-3.64
-4.62
-5.90
-7.49
-9.32
-11.21
-12.94
-14.29
-15.19
-15.77
-16.32
-17.18
-18.49
-20.15
-21.69
-22.52
-22.03
-19.87
-16.02
-10.82
-4.81
1.41
7.29
12.45
16.69
19.90
22.06
23.20
23.37
22.69
21.37
19.71
18.02
16.54
15.41
14.62
14.08
13.68
13.35
13.07
12.87
12.77
12.77
12.81
12.82
12.71
12.36
11.68
10.62
9.22
7.59
5.90
4.30
2.89
1.66
0.57
-0.39
-1.28
-2.11
-2.98
-3.97
-5.14
-6.51
-7.95
-9.29
-10.38
-11.14
-11.60
-11.89
-12.19
-12.68
-13.51
-14.66
-15.91
-16.81
-16.73
-15.00
-11.22
-5.36
2.14
10.47
18.80
26.45
33.05
38.54
43.02
46.67
49.62
52.01
53.95
55.54
56.92
58.27
59.83
61.88
64.71
68.50
73.19
78.43
83.67
88.21
91.50
93.23
93.38
92.22
90.27
88.08
86.06
84.31
82.45
79.77
75.52
69.18
60.67
50.23
38.21
24.89
10.33
-5.38
-22.00
-39.01
-55.75
-71.63
-86.36
-99.99
-112.72
-124.76
-136.13
-146.71
-156.28
-164.57
-171.27
-176.00
-178.29
-177.60
-173.50
-165.81
-154.73
-140.95
-125.50
-109.58
-94.29
-80.38
-68.11
-57.39
-47.94
-39.47
-31.87
-25.09
-19.14
-13.93
-9.32
-5.10
-1.10
2.77
6.57
10.30
13.99
17.61
21.09
24.30
27.13
29.52
31.46
32.96
34.00
34.51
34.46
33.91
33.06
32.17
31.43
30.91
30.47
29.89
28.98
27.70
26.12
24.36
22.53
20.61
18.54
16.23
13.62
10.70
7.48
3.97
0.21
-3.70
-7.54
-10.93
-13.43
-14.68
-14.50
-13.00
-10.51
-7.43
-4.12
-0.75
2.62
5.97
9.20
12.07
14.31
15.72
16.29
16.17
15.65
14.99
14.35
13.73
13.06
12.26
11.37
10.50
9.83
9.52
9.64
10.15
10.94
11.88
12.81
13.61
14.14
14.30
14.07
13.50
12.70
11.77
10.78
9.69
8.40
6.85
5.02
2.96
0.77
-1.48
-3.76
-6.06
-8.34
-10.54
-12.58
-14.43
-16.14
-17.82
-19.59
-21.50
-23.58
-25.78
-28.06
-30.29
-32.23
-33.55
-33.81
-32.62
-29.79
-25.38
-19.75
-13.40
-6.92
-0.79
4.64
9.13
12.57
14.93
16.31
16.86
16.73
16.09
15.12
14.04
13.07
12.47
12.35
12.74
13.48
14.38
15.20
15.84
16.25
16.51
16.67
16.76
16.73
16.44
15.79
14.71
13.24
11.52
9.68
7.87
6.11
4.37
2.66
1.02
-0.48
-1.76
-2.84
-3.89
-5.09
-6.59
-8.39
-10.35
-12.24
-13.87
-15.18
-16.22
-17.18
-18.28
-19.69
-21.53
-23.69
-25.93
-27.82
-28.87
-28.64
-26.87
-23.54
-18.86
-13.16
-6.83
-0.26
6.10
11.83
16.50
19.87
21.90
22.74
22.74
22.21
21.37
20.35
19.19
17.96
16.76
15.78
15.17
15.00
15.23
15.74
16.35
16.93
17.33
17.45
17.22
16.61
15.60
14.21
12.50
10.54
8.49
6.46
4.52
2.70
0.94
-0.81
-2.60
-4.39
-6.10
-7.64
-8.98
-10.19
-11.45
-12.94
-14.77
-16.87
-19.02
-20.90
-22.27
-23.11
-23.63
-24.24
-25.35
-27.21
-29.75
-32.56
-35.05
-36.54
-36.50
-34.62
-30.85
-25.41
-18.71
-11.34
-3.94
2.85
8.52
12.77
15.55
17.05
17.60
17.57
17.24
16.80
16.32
15.83
15.33
14.85
14.43
14.10
13.91
13.89
14.08
14.46
15.00
15.58
15.97
15.96
15.40
14.27
12.71
10.96
9.28
7.84
6.65
5.61
4.54
3.33
1.92
0.40
-1.13
-2.58
-3.95
-5.27
-6.57
-7.85
-9.09
-10.28
-11.44
-12.62
-13.89
-15.27
-16.78
-18.45
-20.35
-22.61
-25.28
-28.24
-31.15
-33.49
-34.66
-34.16
-31.75
-27.44
-21.53
-14.48
-6.85
0.74
7.81
13.93
18.85
22.49
24.88
26.13
26.43
25.96
24.88
23.39
21.67
19.87
18.17
16.72
15.66
15.09
15.03
15.47
16.28
17.28
18.22
18.85
18.94
18.36
17.09
15.25
13.04
10.68
8.38
6.24
4.29
2.47
0.68
-1.19
-3.21
-5.38
-7.67
-9.96
-12.14
-14.14
-15.95
-17.64
-19.36
-21.21
-23.29
-25.60
-28.13
-30.80
-33.50
-36.01
-37.93
-38.77
-37.98
-35.19
-30.34
-23.78
-16.13
-8.16
-0.56
6.14
11.63
15.78
18.60
20.17
20.69
20.39
19.48
18.17
16.64
15.06
13.61
12.49
11.86
11.80
12.25
13.10
14.19
15.34
16.41
17.28
17.82
17.97
17.73
17.12
16.22
15.09
13.76
12.21
10.47
8.61
6.78
5.08
3.53
2.04
0.42
-1.50
-3.80
-6.41
-9.18
-11.91
-14.43
-16.64
-18.52
-20.14
-21.66
-23.29
-25.28
-27.77
-30.60
-33.33
-35.22
-35.44
-33.38
-28.86
-22.23
-14.27
-5.94
1.88
8.59
13.91
17.85
20.58
22.26
22.99
22.82
21.80
20.09
18.02
15.98
14.32
13.27
12.87
12.97
13.39
13.98
14.67
15.45
16.26
17.02
17.57
17.81
17.69
17.25
16.56
15.66
14.56
13.24
11.68
9.90
7.99
6.05
4.17
2.37
0.66
-1.03
-2.79
-4.71
-6.85
-9.20
-11.65
-13.99
-16.01
-17.61
-18.84
-19.96
-21.31
-23.20
-25.77
-28.86
-32.05
-34.75
-36.34
-36.26
-34.18
-30.04
-24.04
-16.64
-8.45
-0.16
7.54
14.09
19.12
22.50
24.38
25.06
24.90
24.16
23.00
21.47
19.64
17.69
15.92
14.63
14.07
14.24
14.93
15.79
16.50
16.87
16.91
16.75
16.53
16.33
16.06
15.60
14.83
13.72
12.41
11.04
9.75
8.56
7.44
6.33
5.22
4.13
3.09
2.13
1.20
0.20
-0.88
-2.03
-3.09
-3.89
-4.29
-4.28
-3.95
-3.54
-3.22
-3.03
-2.75
-1.83
0.42
4.71
11.50
20.82
32.25
45.08
58.54
71.96
84.93
97.28
109.00
120.20
130.93
141.10
150.31
157.77
162.47
163.41
159.92
151.88
139.85
124.87
108.34
91.81
76.77
64.47
55.72
50.69
48.96
49.78
52.48
56.67
62.26
69.12
76.78
84.41
91.03
95.99
99.17
100.79
100.96
99.32
95.06
87.43
76.29
62.43
47.30
32.44
18.81
6.56
-4.77
-15.82
-26.97
-38.25
-49.37
-59.88
-69.28
-77.05
-82.73
-86.08
-87.34
-87.19
-86.60
-86.38
-86.84
-87.76
-88.62
-89.08
-89.17
-89.46
-90.73
-93.74
-98.99
-106.57
-115.96
-125.86
-134.22
-138.61
-137.10
-129.26
-116.67
-102.57
-90.58
-83.13
-80.46
-80.87
-82.01
-82.58
-83.37
-86.89
-95.85
-111.29
-131.56
-152.61
-169.57
-178.39
-177.10
-165.99
-146.99
-122.65
-95.46
-67.58
-40.87
-16.87
3.19
18.63
29.53
36.87
42.40
48.48
57.57
71.89
92.70
119.82
151.32
183.66
212.45
233.47
243.76
242.33
230.17
209.63
183.39
153.57
121.27
86.85
50.33
11.99
-27.54
-67.46
-106.94
-145.15
-180.81
-212.01
-236.26
-251.35
-256.26
-251.94
-241.31
-228.40
-216.97
-209.42
-206.20
-206.17
-207.27
-207.22
-204.07
-196.38
-183.51
-165.78
-144.54
-121.91
-100.17
-80.96
-64.76
-50.77
-37.51
-23.59
-8.67
6.24
19.02
27.23
29.24
24.93
15.90
4.98
-4.69
-10.73
-12.00
-8.69
-1.70
8.19
20.84
36.78
56.66
80.33
106.34
131.95
153.96
169.88
178.83
181.90
181.68
181.18
182.81
187.73
195.74
205.57
215.36
222.95
226.18
223.06
212.12
192.52
164.28
128.31
86.46
41.52
-3.05
-43.86
-78.44
-105.90
-127.17
-144.27
-159.16
-172.71
-184.31
-192.32
-195.15
-192.15
-183.91
-171.80
-157.23
-141.24
-124.64
-108.44
-94.11
-83.29
-76.97
-74.73
-74.43
-72.73
-66.15
-52.34
-30.77
-2.94
28.25
59.29
86.97
109.15
125.22
136.18
144.37
152.70
163.63
178.15
195.21
211.79
223.88
227.75
221.05
203.58
176.97
143.88
106.92
67.74
26.48
-18.00
-67.50
-123.17
-184.23
-247.12
-305.74
-352.88
-382.52
-391.92
-382.29
-357.96
-324.24
-285.53
-244.70
-203.75
-164.94
-131.16
-105.40
-89.30
-81.98
-80.27
-80.17
-78.70
-75.05
-70.08
-65.13
-60.75
-56.29
-50.32
-41.57
-29.71
-15.53
-0.56
13.70
26.44
37.13
45.19
50.01
51.21
48.94
44.17
38.10
32.24
28.54
27.84
29.46
32.31
35.36
38.22
41.18
43.99
46.45
49.87
54.58
59.62
64.22
68.19
71.93
76.15
79.94
82.20
84.33
86.75
88.47
89.35
90.24
92.58
97.85
104.92
112.09
120.55
129.72
136.42
137.59
130.92
115.40
103.63
104.90
103.96
95.11
84.03
71.57
56.87
37.98
12.65
-20.59
-63.39
-114.27
-164.85
-205.80
-230.09
-233.34
-215.65
-181.92
-140.27
-100.79
-71.01
-51.63
-40.32
-34.08
-29.22
-22.75
-13.05
0.05
14.75
28.79
41.60
52.24
59.17
61.60
59.83
55.32
50.44
47.34
47.70
52.80
62.14
73.36
83.57
90.37
92.51
90.13
84.37
76.85
69.37
62.98
57.78
53.25
48.69
43.45
37.24
30.13
22.49
14.76
7.37
0.54
-5.75
-11.68
-17.53
-23.40
-29.19
-34.40
-38.31
-40.10
-39.12
-35.08
-28.15
-18.93
-8.36
2.51
12.67
21.30
27.87
32.17
34.28
34.56
33.47
31.56
29.42
27.65
26.95
27.99
31.17
36.36
42.65
48.49
52.07
51.98
47.69
39.67
29.01
16.96
4.58
-7.22
-17.31
-24.19
-26.09
-21.74
-10.97
4.68
22.37
38.80
51.33
58.79
61.59
61.24
59.48
57.48
55.48
52.93
48.90
42.58
33.67
22.51
9.88
-3.30
-16.29
-28.59
-39.82
-49.41
-56.43
-59.73
-58.50
-52.80
-43.76
-33.13
-22.40
-12.14
-1.90
9.10
21.07
33.12
43.47
50.46
53.55
53.60
52.41
51.70
52.25
53.73
55.26
56.13
56.31
56.36
56.93
58.26
59.94
61.05
60.64
58.10
53.36
46.81
39.10
30.95
22.93
15.31
7.98
0.38
-8.33
-19.02
-32.17
-47.52
-64.02
-80.01
-93.73
-103.68
-109.06
-109.86
-106.81
-101.14
-94.39
-88.02
-83.17
-80.43
-79.74
-80.49
-81.63
-81.96
-80.40
-76.22
-69.29
-60.17
-50.13
-40.79
-33.70
-29.74
-28.86
-30.05
-31.78
-32.51
-31.19
-27.49
-21.72
-14.50
-6.44
2.05
10.70
19.26
27.37
34.56
40.32
44.40
46.87
48.15
48.84
49.45
50.18
50.87
51.19
50.94
50.26
49.69
49.84
50.99
52.87
54.65
55.34
54.28
51.41
47.24
42.49
37.73
33.11
28.42
23.41
17.98
12.36
6.93
1.98
-2.50
-6.84
-11.49
-16.77
-22.56
-28.28
-33.04
-35.83
-35.92
-33.05
-27.52
-20.14
-12.00
-4.21
2.27
6.88
9.44
10.12
9.33
7.55
5.26
2.91
0.84
-0.68
-1.55
-1.78
-1.52
-0.93
-0.12
0.92
2.19
3.72
5.44
7.21
8.84
10.14
11.00
11.32
11.09
10.35
9.18
7.69
5.98
4.15
2.30
0.56
-1.00
-2.31
-3.43
-4.52
-5.80
-7.50
-9.72
-12.47
-15.63
-18.93
-22.03
-24.49
-25.82
-25.60
-23.57
-19.77
-14.50
-8.35
-2.01
3.93
9.06
13.20
16.41
18.83
20.62
21.87
22.60
22.84
22.69
22.37
22.19
22.43
23.26
24.66
26.52
28.65
30.93
33.30
35.75
38.23
40.65
42.88
44.83
46.42
47.54
48.00
47.51
45.73
42.54
38.11
33.02
28.15
24.41
22.41
22.33
23.81
26.12
28.33
29.52
28.99
26.45
22.13
16.80
11.63
7.91
6.84
9.31
15.83
26.40
40.58
57.48
75.92
94.67
112.81
129.90
145.91
160.93
174.76
186.84
196.33
202.54
205.19
204.42
200.57
193.78
184.10
171.55
156.53
139.92
122.95
106.80
92.20
79.28
67.60
56.44
45.13
33.30
21.09
9.00
-2.22
-11.95
-19.90
-26.29
-31.75
-37.13
-43.19
-50.37
-58.72
-67.98
-77.71
-87.37
-96.48
-104.54
-111.16
-116.07
-119.21
-120.80
-121.30
-121.44
-122.01
-123.65
-126.52
-130.13
-133.48
-135.31
-134.60
-130.88
-124.45
-116.16
-107.15
-98.38
-90.43
-83.52
-77.53
-72.38
-68.04
-64.58
-62.06
-60.38
-59.29
-58.46
-57.58
-56.43
-54.93
-53.00
-50.54
-47.46
-43.77
-39.64
-35.43
-31.61
-28.59
-26.54
-25.35
-24.67
-24.11
-23.34
-22.26
-21.02
-19.88
-19.14
-19.03
-19.55
-20.52
-21.64
-22.64
-23.37
-23.89
-24.40
-25.16
-26.42
-28.32
-30.83
-33.68
-36.35
-38.16
-38.42
-36.67
-32.93
-27.67
-21.74
-16.04
-11.23
-7.56
-4.92
-2.98
-1.50
-0.46
-0.02
-0.41
-1.68
-3.54
-5.45
-6.83
-7.30
-6.90
-6.00
-5.11
-4.58
-4.43
-4.39
-4.17
-3.68
-3.12
-2.84
-3.20
-4.28
-5.91
-7.75
-9.46
-10.87
-12.02
-13.13
-14.48
-16.33
-18.78
-21.72
-24.86
-27.81
-30.24
-32.02
-33.25
-34.23
-35.26
-36.56
-38.17
-40.04
-42.08
-44.10
-45.79
-46.67
-46.19
-43.81
-39.36
-33.08
-25.69
-18.06
-11.04
-5.18
-0.63
2.72
5.08
6.62
7.47
7.74
7.60
7.31
7.10
7.13
7.42
7.89
8.34
8.68
8.89
9.09
9.46
10.17
11.25
12.54
13.68
14.25
13.94
12.61
10.49
8.04
5.75
3.96
2.74
1.86
0.99
-0.09
-1.47
-3.03
-4.72
-6.55
-8.68
-11.32
-14.53
-18.17
-21.92
-25.38
-28.29
-30.62
-32.62
-34.74
-37.54
-41.44
-46.53
-52.45
-58.29
-62.75
-64.49
-62.58
-56.83
-47.88
-37.08
-25.96
-15.83
-7.47
-1.08
3.58
6.93
9.34
11.04
12.17
12.83
13.18
13.38
13.56
13.81
14.18
14.76
15.69
17.20
19.46
22.47
25.95
29.40
32.27
34.11
34.77
34.38
33.28
31.82
30.29
28.80
27.38
25.95
24.45
22.77
20.78
18.32
15.23
11.46
7.06
2.24
-2.71
-7.50
-11.93
-15.95
-19.70
-23.46
-27.53
-32.22
-37.73
-44.11
-51.26
-58.83
-66.15
-72.24
-75.90
-75.95
-71.67
-63.00
-50.69
-36.18
-21.15
-7.11
4.95
14.61
21.95
27.26
30.84
32.93
33.78
33.73
33.23
32.79
32.90
33.81
35.50
37.77
40.34
43.00
45.65
48.27
50.78
53.04
54.81
55.83
55.95
55.13
53.48
51.25
48.64
45.83
42.88
39.77
36.44
32.86
29.02
24.97
20.77
16.45
12.00
7.37
2.47
-2.77
-8.42
-14.43
-20.62
-26.64
-32.10
-36.65
-40.24
-43.21
-46.21
-50.00
-55.08
-61.52
-68.75
-75.66
-80.80
-82.67
-80.15
-72.83
-61.17
-46.43
-30.33
-14.59
-0.50
11.27
20.53
27.36
31.91
34.31
34.78
33.72
31.67
29.24
26.96
25.24
24.32
24.38
25.51
27.68
30.71
34.28
38.00
41.47
44.37
46.43
47.45
47.33
46.12
44.03
41.47
38.93
36.77
35.09
33.69
32.13
29.99
27.01
23.30
19.25
15.42
12.25
9.86
7.98
6.05
3.49
0.01
-4.28
-8.88
-13.16
-16.68
-19.33
-21.48
-23.76
-26.92
-31.50
-37.66
-45.01
-52.59
-58.98
-62.55
-61.94
-56.42
-46.24
-32.63
-17.42
-2.55
10.48
20.87
28.53
33.75
36.95
38.44
38.43
37.16
35.08
32.76
30.82
29.70
29.53
30.21
31.48
33.11
34.91
36.76
38.49
39.89
40.72
40.88
40.41
39.48
38.30
36.98
35.51
33.79
31.76
29.43
26.85
24.11
21.24
18.22
15.12
11.93
8.70
5.44
2.03
-1.65
-5.67
-9.99
-14.36
-18.52
-22.25
-25.45
-28.30
-31.15
-34.57
-39.10
-45.03
-52.14
-59.46
-65.41
-68.21
-66.48
-59.85
-49.05
-35.75
-21.89
-9.07
1.77
10.43
17.10
22.10
25.64
27.90
29.03
29.30
29.11
28.83
28.71
28.84
29.17
29.59
30.10
30.76
31.73
33.18
35.13
37.40
39.68
41.51
42.52
42.52
41.57
39.91
37.86
35.72
33.62
31.48
29.10
26.30
23.06
19.50
15.91
12.51
9.46
6.73
4.15
1.49
-1.40
-4.62
-8.17
-11.92
-15.72
-19.37
-22.63
-25.42
-27.81
-30.10
-32.83
-36.56
-41.70
-48.16
-55.27
-61.70
-65.85
-66.26
-62.14
-53.69
-42.04
-28.91
-16.01
-4.62
4.67
11.81
17.08
20.78
23.13
24.30
24.51
24.12
23.52
23.06
22.90
23.00
23.16
23.30
23.43
23.72
24.41
25.64
27.33
29.20
30.84
31.91
32.18
31.69
30.58
29.12
27.50
25.89
24.39
23.03
21.73
20.33
18.65
16.55
14.04
11.28
8.53
6.00
3.70
1.51
-0.87
-3.65
-6.86
-10.31
-13.69
-16.75
-19.35
-21.62
-23.80
-26.23
-29.30
-33.37
-38.61
-44.81
-51.25
-56.65
-59.51
-58.54
-53.22
-44.03
-32.39
-20.17
-9.04
-0.08
6.44
10.83
13.62
15.28
16.03
15.97
15.15
13.77
12.20
10.88
10.17
10.28
11.15
12.59
14.38
16.33
18.35
20.40
22.32
23.92
24.95
25.26
24.83
23.80
22.42
20.90
19.36
17.85
16.35
14.89
13.56
12.44
11.55
10.71
9.59
7.84
5.16
1.51
-2.93
-7.82
-12.81
-17.70
-22.52
-27.44
-32.76
-38.72
-45.34
-52.27
-58.66
-63.30
-64.97
-62.82
-56.78
-47.66
-36.82
-25.75
-15.59
-6.93
0.20
5.96
10.61
14.30
17.18
19.41
21.22
22.77
24.13
25.22
25.81
25.82
25.25
24.29
23.30
22.60
22.44
22.86
23.76
24.89
26.00
26.76
26.92
26.27
24.74
22.39
19.48
16.44
13.63
11.33
9.44
7.66
5.58
2.90
-0.43
-4.14
-7.84
-11.14
-13.79
-15.78
-17.31
-18.71
-20.48
-23.16
-27.29
-33.22
-40.76
-49.05
-56.52
-61.30
-61.77
-57.19
-48.08
-36.02
-23.15
-11.41
-2.01
4.80
9.43
12.59
14.83
16.41
17.37
17.76
17.74
17.64
17.81
18.39
19.35
20.37
21.09
21.20
20.58
19.34
17.67
15.88
14.23
12.94
12.23
12.28
13.19
14.86
17.00
19.09
20.55
20.90
19.90
17.67
14.55
11.03
7.56
4.46
1.90
-0.12
-1.74
-3.18
-4.76
-6.88
-9.85
-13.89
-18.99
-24.92
-31.19
-37.17
-42.21
-45.67
-47.13
-46.32
-43.26
-38.17
-31.37
-23.25
-14.27
-4.93
4.17
12.33
18.86
23.20
25.10
24.71
22.58
19.47
16.19
13.36
11.31
10.15
9.74
9.87
10.37
11.05
11.74
12.23
12.26
11.59
10.18
8.18
5.96
3.90
2.25
0.96
-0.27
-1.81
-3.91
-6.54
-9.47
-12.34
-14.89
-17.06
-18.96
-20.81
-22.83
-25.21
-28.12
-31.74
-36.14
-41.15
-46.15
-50.09
-51.69
-49.94
-44.45
-35.75
-25.13
-14.20
-4.34
3.66
9.72
14.18
17.47
19.89
21.53
22.45
22.77
22.76
22.72
22.86
23.24
23.71
24.04
24.04
23.68
23.06
22.45
22.12
22.23
22.69
23.19
23.31
22.64
21.01
18.59
15.80
13.16
11.01
9.41
8.05
6.45
4.21
1.21
-2.32
-5.99
-9.33
-12.08
-14.22
-16.00
-17.86
-20.24
-23.52
-27.82
-32.94
-38.26
-42.81
-45.51
-45.42
-42.11
-35.79
-27.27
-17.70
-8.26
0.13
6.96
12.08
15.69
18.11
19.75
21.00
22.11
23.16
24.08
24.70
24.95
24.91
24.78
24.81
25.09
25.56
26.03
26.34
26.46
26.51
26.63
26.79
26.76
26.23
24.94
22.95
20.57
18.28
16.47
15.21
14.29
13.29
11.83
9.73
7.12
4.31
1.67
-0.57
-2.43
-4.15
-6.06
-8.37
-11.08
-13.92
-16.51
-18.51
-19.86
-20.80
-21.75
-23.18
-25.41
-28.56
-32.52
-36.90
-40.99
-43.86
-44.48
-42.13
-36.67
-28.66
-19.24
-9.72
-1.16
5.87
11.24
15.10
17.69
19.18
19.76
19.69
19.30
18.94
18.89
19.22
19.85
20.59
21.22
21.63
21.81
21.85
21.87
21.94
22.02
22.03
21.86
21.45
20.83
20.06
19.23
18.41
17.60
16.80
16.03
15.23
14.37
13.35
12.08
10.46
8.54
6.42
4.29
2.35
0.67
-0.72
-1.95
-3.17
-4.61
-6.37
-8.50
-10.88
-13.29
-15.56
-17.49
-19.05
-20.37
-21.67
-23.25
-25.49
-28.62
-32.66
-37.24
-41.58
-44.60
-45.24
-42.77
-37.19
-29.18
-19.95
-10.87
-3.02
2.96
6.96
9.22
10.20
10.36
10.11
9.78
9.56
9.58
9.84
10.24
10.64
10.94
11.09
11.18
11.42
12.03
13.14
14.74
16.53
18.08
18.87
18.52
16.95
14.46
11.62
9.20
7.91
8.13
9.79
12.42
15.25
17.47
18.47
17.92
15.84
12.56
8.56
4.45
0.79
-2.01
-3.77
-4.60
-4.87
-5.06
-5.59
-6.71
-8.48
-10.82
-13.55
-16.45
-19.31
-21.90
-24.09
-25.94
-27.69
-29.75
-32.53
-36.15
-40.28
-44.13
-46.66
-46.92
-44.47
-39.41
-32.45
-24.59
-16.84
-9.99
-4.45
-0.29
2.67
4.63
5.81
6.29
6.11
5.35
4.15
2.81
1.65
0.95
0.82
1.17
1.77
2.44
3.09
3.84
4.86
6.33
8.22
10.33
12.34
13.99
15.16
15.87
16.18
16.14
15.77
15.09
14.18
13.17
12.21
11.34
10.45
9.33
7.79
5.80
3.50
1.12
-1.19
-3.40
-5.61
-7.91
-10.33
-12.82
-15.27
-17.62
-19.89
-22.18
-24.60
-27.30
-30.37
-33.82
-37.48
-40.90
-43.35
-43.95
-42.02
-37.35
-30.38
-22.07
-13.54
-5.68
1.04
6.58
11.06
14.48
16.71
17.56
17.03
15.42
13.35
11.45
10.21
9.79
10.09
10.95
12.24
13.88
15.83
17.94
19.97
21.67
22.85
23.48
23.59
23.27
22.54
21.35
19.71
17.71
15.54
13.41
11.47
9.75
8.15
6.60
5.06
3.47
1.84
0.14
-1.63
-3.43
-5.17
-6.72
-7.96
-8.88
-9.55
-10.08
-10.61
-11.29
-12.22
-13.50
-15.24
-17.47
-20.10
-22.86
-25.26
-26.65
-26.38
-24.00
-19.50
-13.37
-6.46
0.23
5.95
10.30
13.23
14.94
15.65
15.50
14.59
13.09
11.32
9.69
8.60
8.27
8.68
9.63
10.77
11.84
12.74
13.49
14.22
15.01
15.75
16.17
16.00
15.04
13.37
11.33
9.33
7.64
6.28
4.99
3.47
1.55
-0.66
-2.89
-4.86
-6.45
-7.80
-9.20
-10.91
-13.06
-15.51
-18.04
-20.40
-22.47
-24.21
-25.76
-27.26
-28.88
-30.72
-32.77
-34.86
-36.60
-37.45
-36.77
-34.02
-28.92
-21.60
-12.57
-2.68
7.13
15.97
23.16
28.28
31.20
32.10
31.41
29.75
27.80
26.07
24.86
24.16
23.77
23.40
22.87
22.12
21.15
20.01
18.65
17.02
15.07
12.88
10.59
8.43
6.61
5.24
4.28
3.59
2.90
1.91
0.46
-1.44
-3.50
-5.27
-6.26
-6.17
-5.07
-3.41
-1.89
-1.24
-2.00
-4.48
-8.72
-14.68
-22.08
-30.45
-38.93
-46.43
-51.80
-54.17
-53.29
-49.54
-43.80
-37.17
-30.56
-24.56
-19.36
-14.98
-11.34
-8.41
-6.17
-4.57
-3.50
-2.78
-2.32
-2.04
-1.99
-2.20
-2.65
-3.24
-3.86
-4.40
-4.88
-5.38
-6.00
-6.75
-7.61
-8.53
-9.62
-11.10
-13.28
-16.38
-20.42
-25.20
-30.46
-35.98
-41.64
-47.29
-52.41
-56.01
-56.76
-53.64
-46.78
-37.95
-30.33
-27.47
-31.86
-43.70
-60.90
-79.80
-96.72
-109.12
-115.91
-116.85
-111.61
-99.23
-78.52
-49.21
-12.85
26.88
65.02
96.78
118.73
129.19
127.86
115.20
92.11
60.50
23.94
-12.18
-41.49
-58.56
-60.82
-49.69
-30.20
-9.39
5.96
11.12
4.44
-12.55
-36.07
-61.43
-84.41
-102.38
-114.62
-122.02
-126.19
-128.69
-130.41
-131.63
-132.18
-131.68
-129.59
-125.19
-117.70
-106.60
-92.07
-75.12
-57.52
-41.19
-27.59
-17.26
-9.78
-4.01
1.58
8.34
17.13
28.00
40.31
52.89
64.46
74.02
81.08
85.70
88.33
89.58
90.08
90.29
90.46
90.70
91.03
91.48
92.15
93.12
94.29
95.35
95.79
95.09
92.96
89.53
85.27
80.81
76.60
72.75
69.05
65.05
60.34
54.80
48.62
42.25
36.17
30.78
26.10
21.94
17.86
13.44
8.38
2.55
-3.99
-11.04
-18.18
-24.70
-29.64
-32.01
-31.02
-26.52
-19.08
-9.88
-0.27
8.68
16.45
23.02
28.58
33.22
36.83
39.15
40.05
39.70
38.53
37.10
35.88
35.07
34.68
34.56
34.58
34.70
34.95
35.37
36.00
36.87
37.92
39.01
39.97
40.55
40.60
40.01
38.78
37.00
34.81
32.33
29.67
26.90
24.02
21.05
17.97
14.81
11.63
8.55
5.71
3.20
0.99
-1.03
-2.98
-4.99
-7.14
-9.55
-12.44
-16.09
-20.62
-25.75
-30.63
-33.98
-34.54
-31.56
-25.11
-16.15
-6.08
3.66
12.09
18.73
23.58
26.81
28.65
29.34
29.19
28.54
27.86
27.54
27.84
28.77
30.16
31.67
33.00
34.00
34.65
35.09
35.44
35.75
35.92
35.82
35.38
34.59
33.53
32.30
30.93
29.45
27.84
26.11
24.29
22.37
20.30
18.05
15.61
13.14
10.80
8.78
7.12
5.68
4.20
2.41
0.23
-2.24
-4.71
-6.89
-8.64
-10.02
-11.37
-13.20
-16.03
-20.11
-25.31
-30.93
-35.89
-38.90
-38.93
-35.59
-29.23
-20.92
-12.02
-3.75
3.11
8.37
12.21
14.91
16.63
17.37
17.09
15.96
14.37
12.92
12.24
12.70
14.31
16.81
19.74
22.69
25.32
27.32
28.28
27.73
25.33
21.09
15.57
9.76
4.71
1.11
-1.03
-2.29
-3.41
-4.87
-6.60
-8.13
-8.92
-8.75
-7.89
-6.94
-6.49
-6.89
-8.08
-9.77
-11.54
-13.13
-14.43
-15.43
-16.14
-16.55
-16.64
-16.43
-16.14
-16.12
-16.74
-18.12
-20.04
-21.78
-22.34
-20.74
-16.41
-9.47
-0.72
8.57
17.05
23.78
28.44
31.42
33.55
35.75
38.70
42.69
47.67
53.35
59.35
65.25
70.57
74.77
77.50
78.69
78.66
78.08
77.66
77.82
78.42
78.68
77.40
73.34
65.64
54.16
39.59
23.24
6.72
-8.54
-21.59
-32.05
-39.98
-45.62
-49.25
-51.07
-51.39
-50.62
-49.34
-48.10
-47.32
-47.13
-47.38
-47.77
-47.93
-47.61
-46.73
-45.42
-44.01
-42.92
-42.56
-43.11
-44.41
-45.96
-47.03
-46.86
-44.89
-40.89
-35.01
-27.70
-19.61
-11.47
-3.94
2.48
7.54
11.26
13.86
15.70
17.10
18.27
19.27
20.09
20.71
21.16
21.47
21.72
21.93
22.10
22.18
22.17
22.09
21.94
21.70
21.29
20.63
19.66
18.42
17.09
15.92
15.16
14.91
15.13
15.53
15.72
15.33
14.16
12.31
10.11
8.00
6.37
5.36
4.78
4.22
3.25
1.61
-0.64
-3.24
-5.82
-8.12
-10.09
-11.91
-13.85
-16.21
-19.09
-22.36
-25.64
-28.34
-29.82
-29.58
-27.41
-23.41
-18.06
-12.01
-6.00
-0.67
3.49
6.22
7.56
7.72
7.09
6.09
5.05
4.15
3.47
3.01
2.74
2.65
2.73
2.94
3.26
3.65
4.09
4.53
4.92
5.15
5.14
4.88
4.42
3.86
3.27
2.68
2.02
1.26
0.40
-0.50
-1.33
-2.00
-2.49
-2.78
-2.87
-2.79
-2.59
-2.37
-2.31
-2.61
-3.42
-4.83
-6.82
-9.33
-12.20
-15.18
-17.90
-19.94
-20.93
-20.74
-19.62
-18.11
-16.86
-16.31
-16.54
-17.31
-18.15
-18.57
-18.16
-16.62
-13.74
-9.44
-3.84
2.73
9.67
16.24
21.70
25.44
27.12
26.77
24.80
21.93
18.98
16.69
15.54
15.59
16.60
18.15
19.76
21.05
21.68
21.42
20.16
17.97
15.05
11.72
8.29
5.08
2.53
1.19
1.74
4.79
10.60
18.84
28.54
38.33
46.89
53.35
57.54
59.95
61.35
62.45
63.56
64.55
65.00
64.36
62.23
58.46
53.23
47.01
40.58
34.83
30.66
28.59
28.52
29.75
31.18
31.92
31.81
31.62
32.59
35.81
41.31
47.81
52.91
53.91
48.91
37.51
21.07
2.27
-15.70
-29.99
-38.91
-42.22
-41.19
-38.00
-35.05
-34.20
-36.27
-41.01
-47.50
-54.66
-61.71
-68.24
-74.07
-79.00
-82.57
-84.13
-83.16
-79.51
-73.65
-66.60
-59.57
-53.56
-49.02
-45.73
-43.02
-40.18
-36.78
-32.93
-29.16
-26.12
-24.31
-23.89
-24.69
-26.37
-28.62
-31.17
-33.79
-36.21
-38.04
-38.83
-38.19
-35.91
-32.12
-27.30
-22.19
-17.59
-14.21
-12.39
-12.11
-13.00
-14.47
-15.93
-17.00
-17.56
-17.69
-17.59
-17.35
-17.00
-16.46
-15.65
-14.57
-13.34
-12.13
-11.17
-10.67
-10.71
-11.32
-12.40
-13.74
-15.08
-16.10
-16.54
-16.28
-15.37
-13.94
-12.26
-10.60
-9.14
-8.02
-7.28
-6.90
-6.83
-7.00
-7.37
-7.90
-8.58
-9.43
-10.44
-11.50
-12.38
-12.74
-12.16
-10.31
-7.06
-2.54
2.90
8.77
14.65
20.28
25.55
30.48
35.08
39.28
42.98
46.04
48.43
50.25
51.72
53.08
54.54
56.19
58.04
60.03
62.04
63.96
65.66
67.02
67.96
68.44
68.47
68.14
67.64
67.23
67.17
67.66
68.67
69.93
70.96
71.28
70.68
69.30
67.55
65.80
63.97
61.34
56.72
48.85
36.96
21.08
2.04
-18.79
-39.90
-59.92
-77.75
-92.56
-103.83
-111.44
-115.75
-117.55
-117.83
-117.53
-117.31
-117.56
-118.49
-120.31
-123.18
-127.04
-131.51
-135.83
-139.08
-140.44
-139.41
-135.85
-130.00
-122.39
-113.84
-105.32
-97.78
-91.82
-87.45
-84.00
-80.34
-75.32
-68.16
-58.60
-46.85
-33.34
-18.48
-2.71
13.46
29.33
44.13
57.25
68.57
78.58
88.28
98.80
110.91
124.65
139.21
153.15
164.92
173.38
178.19
179.88
179.61
178.72
178.34
179.11
181.09
183.88
186.70
188.59
188.54
185.75
179.82
170.99
160.03
147.95
135.66
123.59
111.71
99.88
88.16
77.01
67.04
58.53
51.04
43.37
34.06
22.04
7.15
-9.71
-27.07
-43.57
-58.38
-71.47
-83.33
-94.62
-105.67
-116.42
-126.41
-135.02
-141.82
-146.75
-150.21
-152.96
-155.80
-159.30
-163.60
-168.36
-172.90
-176.37
-177.89
-176.76
-172.49
-165.04
-154.79
-142.61
-129.59
-116.79
-104.99
-94.53
-85.35
-77.21
-69.78
-62.85
-56.36
-50.34
-44.91
-40.26
-36.52
-33.72
-31.73
-30.33
-29.30
-28.55
-28.12
-28.11
-28.52
-29.10
-29.50
-29.45
-28.96
-28.37
-28.22
-28.90
-30.48
-32.53
-34.39
-35.43
-35.39
-34.47
-33.14
-31.92
-31.06
-30.52
-30.02
-29.35
-28.51
-27.79
-27.61
-28.35
-30.20
-33.10
-36.80
-40.89
-44.81
-47.83
-49.10
-47.84
-43.64
-36.60
-27.42
-17.20
-7.13
1.76
8.89
14.06
17.35
18.97
19.14
18.09
16.14
13.75
11.49
9.99
9.67
10.64
12.65
15.20
17.78
20.05
21.89
23.29
24.23
24.59
24.18
22.99
21.17
19.08
17.14
15.60
14.49
13.69
13.05
12.54
12.24
12.18
12.36
12.61
12.79
12.85
12.93
13.24
14.00
15.26
16.88
18.63
20.27
21.66
22.68
23.15
22.90
21.72
19.65
17.07
14.67
13.40
14.16
17.68
24.29
33.97
46.29
60.62
76.11
91.83
106.76
119.78
129.65
135.08
134.94
128.54
115.88
97.81
75.93
52.25
28.69
6.69
-13.00
-30.17
-44.97
-57.56
-67.95
-76.11
-82.11
-86.36
-89.59
-92.75
-96.66
-101.64
-107.40
-113.10
-117.75
-120.52
-121.09
-119.64
-116.67
-112.73
-108.11
-102.80
-96.55
-89.22
-80.91
-72.08
-63.26
-54.87
-46.82
-38.56
-29.23
-18.03
-4.53
11.15
28.52
46.93
65.64
83.81
100.36
113.99
123.49
128.31
129.04
127.34
125.30
124.49
125.36
127.24
129.06
130.29
131.29
132.97
135.89
139.56
142.47
142.97
140.20
134.74
128.34
122.99
119.96
119.20
119.53
119.25
116.95
112.01
104.80
96.52
88.57
81.89
76.38
70.73
62.95
51.29
35.14
15.52
-5.27
-24.53
-40.21
-51.52
-58.98
-63.84
-67.44
-70.70
-74.10
-77.89
-82.35
-87.84
-94.56
-102.36
-110.63
-118.55
-125.50
-131.41
-136.73
-141.96
-147.08
-151.31
-153.23
-151.45
-145.29
-135.11
-122.13
-107.92
-93.78
-80.47
-68.28
-57.33
-47.70
-39.58
-33.03
-27.88
-23.66
-19.71
-15.33
-10.08
-3.90
2.96
9.96
16.58
22.50
27.63
32.11
36.11
39.70
42.75
45.03
46.27
46.33
45.27
43.34
40.89
38.31
35.90
33.81
31.98
30.16
28.00
25.15
21.47
17.02
12.17
7.36
3.02
-0.59
-3.47
-5.87
-8.14
-10.68
-13.83
-17.76
-22.34
-27.12
-31.31
-33.95
-34.17
-31.49
-26.00
-18.34
-9.51
-0.61
7.50
14.26
19.46
23.10
25.30
26.22
26.05
25.04
23.42
21.43
19.27
17.04
14.82
12.66
10.64
8.82
7.26
5.98
4.92
3.96
2.97
1.79
0.29
-1.59
-3.76
-5.97
-7.82
-8.92
-9.00
-8.11
-6.68
-5.30
-4.49
-4.38
-4.71
-4.91
-4.48
-3.23
-1.28
0.94
3.02
4.63
5.55
5.68
4.95
3.45
1.49
-0.35
-1.32
-0.84
1.29
4.65
8.46
11.78
13.92
14.64
14.12
12.78
11.06
9.23
7.35
5.44
3.47
1.61
0.05
-1.01
-1.53
-1.57
-1.29
-0.85
-0.24
0.58
1.71
3.13
4.68
6.09
7.08
7.45
7.15
6.27
4.98
3.48
2.00
0.71
-0.29
-1.00
-1.63
-2.46
-3.79
-5.77
-8.31
-11.14
-13.96
-16.54
-18.81
-20.88
-22.94
-25.20
-27.83
-30.98
-34.70
-38.86
-43.07
-46.67
-48.91
-49.17
-47.27
-43.52
-38.55
-33.14
-27.92
-23.23
-19.23
-15.96
-13.45
-11.67
-10.52
-9.71
-8.89
-7.73
-6.07
-4.02
-1.80
0.34
2.26
4.00
5.70
7.47
9.34
11.27
13.14
14.86
16.41
17.76
18.93
19.86
20.47
20.66
20.42
19.80
19.02
18.28
17.78
17.51
17.28
16.75
15.59
13.64
10.97
7.93
4.82
1.91
-0.78
-3.38
-6.08
-8.97
-12.04
-15.14
-18.03
-20.44
-21.97
-22.09
-20.29
-16.15
-9.59
-1.02
8.71
18.56
27.57
35.15
41.25
46.28
50.87
55.54
60.38
64.97
68.54
70.27
69.70
66.86
62.32
56.99
51.81
47.56
44.70
43.39
43.61
45.27
48.33
52.81
58.81
66.32
75.22
85.21
95.74
106.02
115.12
121.96
125.58
125.37
121.11
113.12
102.20
89.33
75.70
62.56
51.24
43.03
39.11
40.11
45.84
54.96
64.92
72.32
73.43
65.27
46.55
18.41
-15.61
-50.40
-80.72
-102.63
-114.31
-115.96
-109.11
-95.63
-77.21
-55.21
-30.99
-6.11
17.75
39.06
56.76
70.48
80.49
87.54
92.68
97.02
101.51
106.58
112.00
116.97
120.49
121.88
121.12
118.64
114.87
109.62
101.97
90.60
74.67
54.48
31.65
8.66
-12.14
-29.37
-43.24
-55.28
-67.72
-82.49
-100.34
-120.46
-140.73
-158.52
-171.73
-179.47
-182.27
-181.63
-179.39
-177.08
-175.86
-176.42
-179.11
-183.76
-189.38
-194.10
-195.55
-191.65
-181.44
-165.50
-145.68
-124.36
-103.56
-84.41
-67.18
-51.59
-37.31
-24.22
-12.39
-1.99
6.93
14.36
20.39
25.05
28.34
30.21
30.72
29.99
28.32
26.03
23.41
20.57
17.42
13.75
9.36
4.25
-1.27
-6.61
-11.09
-14.16
-15.68
-15.95
-15.56
-15.15
-15.16
-15.67
-16.53
-17.46
-18.27
-18.89
-19.50
-20.38
-21.93
-24.44
-28.04
-32.46
-37.06
-40.88
-43.00
-42.82
-40.23
-35.65
-29.76
-23.21
-16.52
-9.91
-3.53
2.49
7.91
12.43
15.85
18.09
19.26
19.58
19.34
18.79
18.06
17.25
16.40
15.57
14.80
14.22
13.91
13.96
14.40
15.18
16.17
17.13
17.80
17.98
17.61
16.80
15.80
14.86
14.01
13.10
11.81
9.88
7.22
4.02
0.63
-2.58
-5.33
-7.56
-9.36
-10.92
-12.48
-14.27
-16.49
-19.31
-22.80
-26.85
-31.17
-35.19
-38.27
-39.73
-39.12
-36.29
-31.49
-25.22
-18.15
-10.88
-3.86
2.60
8.30
13.08
16.76
19.21
20.48
20.70
20.20
19.34
18.46
17.72
17.20
16.87
16.69
16.71
17.03
17.77
18.95
20.40
21.83
22.88
23.29
23.05
22.40
21.66
21.11
20.79
20.52
20.04
19.06
17.50
15.49
13.21
10.83
8.47
6.11
3.73
1.38
-0.84
-2.74
-4.21
-5.26
-6.05
-6.81
-7.84
-9.36
-11.56
-14.55
-18.29
-22.56
-26.90
-30.65
-33.09
-33.66
-32.10
-28.60
-23.66
-18.00
-12.38
-7.46
-3.77
-1.60
-1.03
-1.81
-3.43
-5.22
-6.51
-6.79
-5.78
-3.47
-0.14
3.82
7.93
11.78
15.07
17.70
19.73
21.23
22.32
22.98
23.16
22.80
21.93
20.64
19.06
17.24
15.17
12.77
9.99
6.88
3.68
0.73
-1.63
-3.20
-4.06
-4.58
-5.26
-6.61
-8.87
-11.94
-15.41
-18.71
-21.46
-23.60
-25.42
-27.39
-29.88
-32.91
-36.10
-38.80
-40.28
-40.02
-37.76
-33.55
-27.63
-20.30
-11.94
-3.02
5.86
14.02
20.67
25.23
27.44
27.45
25.88
23.55
21.22
19.42
18.33
17.86
17.75
17.83
18.00
18.38
19.08
20.22
21.69
23.25
24.47
24.94
24.41
22.83
20.41
17.48
14.36
11.28
8.36
5.64
3.20
1.08
-0.70
-2.23
-3.73
-5.50
-7.75
-10.58
-13.86
-17.33
-20.73
-23.91
-26.93
-30.05
-33.59
-37.69
-42.16
-46.37
-49.38
-50.28
-48.48
-43.93
-37.20
-29.18
-20.80
-12.84
-5.74
0.35
5.47
9.79
13.56
17.04
20.41
23.68
26.70
29.21
31.01
32.05
32.48
32.56
32.50
32.41
32.21
31.77
30.96
29.70
27.99
25.90
23.55
21.10
18.76
16.79
15.49
15.05
15.56
16.78
18.23
19.14
18.67
16.13
11.23
4.31
-3.63
-11.15
-16.72
-19.20
-18.23
-14.48
-9.48
-5.24
-3.68
-6.02
-12.43
-21.95
-32.76
-42.69
-49.75
-52.63
-51.00
-45.49
-37.50
-28.69
-20.51
-13.87
-8.98
-5.48
-2.74
-0.18
2.59
5.70
9.14
12.82
16.52
19.90
22.45
23.53
22.61
19.52
14.59
8.72
3.06
-1.25
-3.45
-3.33
-1.29
1.90
5.33
8.22
10.09
10.85
10.66
9.91
8.96
8.11
7.53
7.27
7.26
7.31
7.14
6.46
5.02
2.72
-0.26
-3.56
-6.69
-9.20
-10.85
-11.68
-11.97
-12.20
-12.81
-14.11
-16.10
-18.48
-20.69
-22.01
-21.71
-19.29
-14.51
-7.58
0.93
10.16
19.22
27.29
33.85
38.66
41.72
43.16
43.16
41.94
39.76
36.93
33.80
30.65
27.71
25.07
22.80
20.99
19.80
19.47
20.08
21.55
23.50
25.33
26.40
26.22
24.59
21.65
17.78
13.45
9.06
4.83
0.72
-3.46
-7.89
-12.58
-17.26
-21.38
-24.34
-25.67
-25.32
-23.70
-21.52
-19.59
-18.48
-18.45
-19.50
-21.51
-24.35
-27.94
-32.05
-36.24
-39.76
-41.79
-41.65
-39.11
-34.36
-28.00
-20.76
-13.27
-6.05
0.56
6.26
10.78
13.94
15.69
16.17
15.71
14.76
13.72
12.92
12.49
12.42
12.63
12.97
13.29
13.49
13.56
13.52
13.52
13.67
14.00
14.44
14.77
14.78
14.33
13.43
12.21
10.81
9.25
7.40
5.11
2.26
-1.03
-4.42
-7.53
-10.09
-12.06
-13.64
-15.19
-17.09
-19.62
-22.99
-27.22
-32.21
-37.52
-42.49
-46.22
-47.84
-46.76
-42.90
-36.68
-28.90
-20.55
-12.44
-5.18
0.99
6.02
10.07
13.28
15.77
17.59
18.68
19.02
18.66
17.81
16.82
16.06
15.78
16.03
16.73
17.70
18.89
20.28
21.96
23.91
25.96
27.87
29.32
30.08
30.05
29.20
27.56
25.16
22.02
18.19
13.79
9.00
4.03
-0.86
-5.41
-9.38
-12.56
-14.85
-16.34
-17.21
-17.66
-17.89
-18.05
-18.33
-19.03
-20.49
-22.88
-26.06
-29.40
-32.03
-33.12
-32.24
-29.45
-25.23
-20.19
-14.84
-9.48
-4.26
0.67
5.10
8.84
11.75
13.84
15.22
16.08
16.62
16.98
17.28
17.59
18.00
18.55
19.33
20.40
21.74
23.22
24.55
25.39
25.48
24.81
23.66
22.46
21.56
21.02
20.58
19.78
18.23
15.84
12.93
10.01
7.52
5.60
4.00
2.30
0.14
-2.52
-5.38
-7.97
-9.93
-11.28
-12.31
-13.49
-15.17
-17.52
-20.49
-23.93
-27.67
-31.43
-34.79
-37.16
-37.88
-36.48
-32.82
-27.21
-20.28
-12.78
-5.37
1.47
7.43
12.31
15.99
18.37
19.44
19.31
18.18
16.36
14.23
12.16
10.46
9.29
8.71
8.66
9.10
9.93
11.05
12.31
13.46
14.23
14.40
13.92
12.98
11.88
10.91
10.25
9.86
9.52
8.89
7.65
5.61
2.78
-0.59
-4.14
-7.48
-10.35
-12.75
-14.80
-16.78
-18.90
-21.32
-24.19
-27.68
-31.88
-36.69
-41.66
-45.97
-48.65
-48.92
-46.42
-41.35
-34.33
-26.14
-17.52
-9.14
-1.45
5.20
10.61
14.72
17.62
19.47
20.46
20.76
20.54
19.99
19.27
18.56
18.02
17.76
17.87
18.39
19.34
20.64
22.11
23.47
24.47
24.92
24.71
23.90
22.57
20.84
18.90
16.91
14.99
13.20
11.51
9.77
7.84
5.60
3.04
0.19
-2.84
-5.96
-9.06
-12.08
-14.97
-17.66
-20.21
-22.76
-25.58
-28.99
-33.23
-38.20
-43.42
-48.01
-50.89
-51.17
-48.42
-42.80
-35.04
-26.13
-17.04
-8.54
-1.09
5.12
10.05
13.79
16.51
18.42
19.74
20.63
21.17
21.40
21.35
21.09
20.75
20.48
20.44
20.68
21.13
21.66
22.08
22.30
22.35
22.36
22.50
22.85
23.26
23.47
23.16
22.20
20.68
18.91
17.18
15.61
14.10
12.37
10.19
7.49
4.35
0.99
-2.41
-5.71
-8.86
-11.81
-14.54
-17.10
-19.66
-22.53
-26.06
-30.40
-35.44
-40.64
-45.12
-47.92
-48.24
-45.68
-40.33
-32.75
-23.81
-14.42
-5.45
2.47
8.88
13.51
16.38
17.70
17.86
17.35
16.67
16.13
15.96
16.19
16.84
17.86
19.13
20.47
21.64
22.47
22.88
23.00
23.01
23.07
23.18
23.22
23.00
22.33
21.14
19.47
17.47
15.27
12.99
10.60
7.97
4.94
1.43
-2.45
-6.36
-9.85
-12.62
-14.64
-16.16
-17.66
-19.51
-21.96
-25.04
-28.68
-32.81
-37.18
-41.37
-44.64
-46.16
-45.23
-41.57
-35.42
-27.49
-18.67
-9.77
-1.40
6.04
12.34
17.45
21.39
24.26
26.24
27.53
28.30
28.68
28.75
28.58
28.23
27.80
27.41
27.22
27.33
27.73
28.31
28.88
29.29
29.48
29.51
29.46
29.34
29.02
28.33
27.10
25.34
23.17
20.79
18.30
15.74
13.08
10.34
7.63
5.14
2.96
1.09
-0.68
-2.58
-4.86
-7.59
-10.70
-13.97
-17.15
-20.08
-22.78
-25.47
-28.47
-32.07
-36.31
-40.83
-44.92
-47.69
-48.31
-46.27
-41.49
-34.40
-25.70
-16.31
-7.07
1.29
8.30
13.72
17.49
19.72
20.66
20.66
20.19
19.76
19.72
20.24
21.20
22.29
23.19
23.75
24.01
24.19
24.50
24.99
25.50
25.80
25.64
24.98
23.96
22.81
21.74
20.83
19.94
18.87
17.42
15.49
13.14
10.55
7.90
5.40
3.19
1.35
-0.19
-1.57
-3.05
-4.86
-7.12
-9.76
-12.59
-15.35
-17.89
-20.26
-22.64
-25.28
-28.30
-31.68
-35.20
-38.52
-41.16
-42.57
-42.27
-39.89
-35.41
-29.11
-21.60
-13.62
-5.89
1.01
6.71
10.99
13.81
15.29
15.66
15.33
14.69
14.14
13.93
14.13
14.64
15.29
15.86
16.24
16.45
16.63
16.94
17.48
18.19
18.91
19.41
19.51
19.19
18.55
17.76
16.91
16.00
14.91
13.55
11.86
9.96
8.00
6.19
4.62
3.23
1.84
0.22
-1.78
-4.22
-6.99
-9.91
-12.74
-15.28
-17.39
-19.02
-20.26
-21.35
-22.68
-24.68
-27.66
-31.60
-36.05
-40.17
-42.99
-43.72
-41.97
-37.88
-32.00
-25.02
-17.64
-10.38
-3.67
2.16
6.86
10.26
12.36
13.39
13.71
13.73
13.76
13.91
14.14
14.32
14.27
13.95
13.42
12.89
12.58
12.62
13.01
13.59
14.16
14.57
14.74
14.67
14.40
13.89
13.04
11.81
10.18
8.26
6.22
4.23
2.39
0.74
-0.70
-1.88
-2.79
-3.43
-3.87
-4.29
-4.85
-5.70
-6.77
-7.95
-9.04
-9.94
-10.64
-11.30
-12.14
-13.41
-15.33
-18.04
-21.60
-25.86
-30.41
-34.59
-37.62
-38.80
-37.73
-34.43
-29.29
-23.01
-16.32
-9.88
-4.18
0.49
4.02
6.42
7.77
8.23
7.92
7.00
5.65
4.07
2.48
1.16
0.32
0.11
0.57
1.64
3.17
4.96
6.83
8.61
10.18
11.42
12.16
12.21
11.38
9.65
7.13
4.10
0.92
-2.14
-4.98
-7.65
-10.35
-13.24
-16.43
-19.92
-23.58
-27.29
-30.90
-34.28
-37.30
-39.84
-41.83
-43.27
-44.22
-44.77
-44.95
-44.73
-44.07
-43.05
-41.96
-41.37
-41.80
-43.59
-46.64
-50.40
-53.97
-56.14
-55.61
-51.18
-42.18
-28.88
-12.69
4.11
19.04
30.31
37.34
40.78
41.93
41.97
41.62
41.10
40.49
40.05
40.14
41.03
42.45
43.72
43.88
42.21
38.45
32.91
26.25
19.21
12.37
5.93
-0.20
-6.25
-12.44
-18.75
-24.92
-30.51
-35.12
-38.61
-41.11
-42.91
-44.22
-45.01
-45.02
-43.93
-41.70
-38.70
-35.65
-33.38
-32.46
-32.97
-34.46
-36.16
-37.26
-37.11
-35.35
-31.89
-26.80
-20.30
-12.76
-4.61
3.70
11.77
19.38
26.44
32.89
38.59
43.25
46.49
48.05
47.98
46.70
44.88
43.30
42.47
42.59
43.47
44.69
45.78
46.40
46.36
45.64
44.37
42.72
40.91
39.18
37.73
36.68
36.02
35.59
35.05
34.03
32.20
29.43
25.88
21.91
17.95
14.31
11.06
8.05
5.05
1.85
-1.61
-5.33
-9.19
-13.05
-16.63
-19.53
-21.24
-21.26
-19.29
-15.38
-9.93
-3.62
2.90
9.05
14.48
18.97
22.36
24.53
25.42
25.08
23.76
21.86
19.86
18.19
17.16
16.82
17.07
17.66
18.35
18.91
19.21
19.18
18.77
17.88
16.34
14.02
10.90
7.21
3.40
0.04
-2.36
-3.57
-3.69
-3.17
-2.54
-2.40
-3.19
-5.14
-8.27
-12.40
-17.11
-21.80
-25.75
-28.28
-28.91
-27.45
-24.06
-19.15
-13.29
-7.06
-1.00
4.46
9.01
12.47
14.81
16.17
16.75
16.85
16.75
16.62
16.58
16.66
16.83
17.04
17.14
16.99
16.46
15.56
14.41
13.33
12.61
12.40
12.56
12.62
11.99
10.21
7.18
3.21
-1.12
-5.19
-8.59
-11.22
-13.19
-14.77
-16.29
-18.06
-20.34
-23.21
-26.52
-29.75
-32.22
-33.26
-32.44
-29.65
-25.09
-19.15
-12.25
-4.95
2.14
8.35
13.13
16.25
17.85
18.45
18.59
18.68
18.75
18.66
18.26
17.54
16.72
16.14
16.04
16.40
16.97
17.36
17.24
16.48
15.19
13.68
12.25
11.11
10.28
9.68
9.18
8.73
8.27
7.71
6.87
5.50
3.39
0.49
-3.03
-6.74
-10.17
-12.98
-15.15
-16.99
-19.02
-21.74
-25.32
-29.43
-33.30
-35.92
-36.41
-34.33
-29.80
-23.54
-16.49
-9.58
-3.46
1.53
5.43
8.39
10.61
12.25
13.38
14.07
14.39
14.45
14.43
14.45
14.55
14.73
14.91
15.07
15.25
15.57
16.15
17.05
18.21
19.47
20.64
21.53
22.05
22.20
22.03
21.59
20.98
20.27
19.54
18.93
18.51
18.31
18.33
18.51
18.76
18.93
18.86
18.38
17.36
15.71
13.40
10.44
6.74
2.22
-3.23
-9.55
-16.39
-23.07
-28.69
-32.36
-33.49
-31.99
-28.22
-22.87
-16.72
-10.43
-4.49
0.74
5.05
8.26
10.34
11.41
11.76
11.78
11.83
12.11
12.69
13.50
14.40
15.29
16.13
16.90
17.57
18.14
18.57
18.84
18.98
18.98
18.86
18.62
18.25
17.72
17.02
16.13
15.09
13.97
12.83
11.73
10.61
9.35
7.76
5.75
3.28
0.44
-2.65
-5.83
-8.97
-11.97
-14.76
-17.34
-19.76
-22.16
-24.70
-27.54
-30.80
-34.53
-38.64
-42.83
-46.58
-49.20
-50.02
-48.60
-44.97
-39.65
-33.46
-27.38
-22.14
-18.13
-15.40
-13.74
-12.86
-12.53
-12.61
-13.00
-13.60
-14.29
-14.93
-15.38
-15.62
-15.69
-15.76
-15.97
-16.37
-16.89
-17.35
-17.59
-17.47
-16.91
-15.89
-14.44
-12.61
-10.54
-8.44
-6.54
-5.07
-4.11
-3.68
-3.64
-3.80
-3.90
-3.75
-3.18
-2.20
-0.97
0.23
1.06
1.36
1.18
0.78
0.50
0.49
0.68
0.74
0.29
-0.88
-2.72
-4.98
-7.36
-9.71
-12.02
-14.35
-16.68
-18.74
-20.05
-20.11
-18.62
-15.63
-11.49
-6.71
-1.79
2.89
7.11
10.72
13.57
15.58
16.74
17.17
17.13
16.88
16.57
16.21
15.69
14.91
13.91
12.89
12.14
11.91
12.26
13.06
14.06
15.00
15.73
16.30
16.82
17.42
18.12
18.82
19.35
19.55
19.35
18.78
17.97
17.03
16.08
15.19
14.34
13.45
12.38
11.00
9.27
7.32
5.41
3.87
2.99
2.79
3.08
3.45
3.47
2.93
1.84
0.49
-0.71
-1.38
-1.25
-0.18
1.97
5.34
10.19
16.70
24.90
34.53
45.03
55.78
66.13
75.47
83.06
87.95
89.03
85.59
77.85
67.31
56.55
48.33
44.51
45.25
49.06
53.45
56.15
55.96
52.93
47.98
42.11
35.83
29.03
21.27
12.18
1.80
-9.37
-20.60
-31.12
-40.49
-48.59
-55.52
-61.46
-66.46
-70.41
-73.13
-74.57
-74.95
-74.84
-74.94
-75.79
-77.58
-79.98
-82.27
-83.69
-83.74
-82.38
-80.09
-77.67
-75.93
-75.41
-76.12
-77.48
-78.48
-77.99
-75.19
-69.86
-62.41
-53.70
-44.71
-36.15
-28.40
-21.51
-15.43
-10.12
-5.65
-2.12
0.40
1.95
2.72
2.98
3.02
3.13
3.47
4.12
5.05
6.13
7.26
8.35
9.34
10.23
11.03
11.76
12.47
13.18
13.87
14.38
14.48
13.92
12.52
10.39
7.79
5.11
2.61
0.29
-2.11
-4.94
-8.39
-12.35
-16.39
-20.03
-22.96
-25.17
-27.01
-28.97
-31.42
-34.56
-38.33
-42.45
-46.50
-49.85
-51.61
-50.71
-46.14
-37.44
-25.08
-10.69
3.32
14.38
20.60
21.43
17.71
11.28
4.25
-1.58
-4.92
-4.91
-0.77
8.23
22.44
41.33
63.28
85.66
105.70
121.40
132.11
138.40
141.17
140.65
135.81
124.82
106.13
79.88
48.38
15.48
-14.78
-39.81
-59.03
-73.53
-84.89
-94.08
-101.09
-105.49
-107.22
-107.12
-106.78
-107.81
-111.00
-115.90
-121.03
-124.48
-124.76
-121.38
-115.04
-107.40
-100.45
-95.76
-93.96
-94.66
-96.84
-99.38
-101.56
-103.21
-104.50
-105.61
-106.57
-107.28
-107.74
-108.18
-109.01
-110.52
-112.58
-114.51
-115.13
-113.14
-107.63
-98.43
-86.33
-72.88
-59.95
-49.06
-40.87
-34.90
-29.81
-23.89
-15.72
-4.63
9.11
24.50
40.15
54.68
67.01
76.56
83.27
87.53
90.03
91.52
92.54
93.25
93.45
92.78
90.96
88.07
84.63
81.37
79.02
78.07
78.61
80.40
82.90
85.44
87.30
87.90
86.89
84.18
80.06
75.01
69.58
64.18
59.01
54.07
49.27
44.60
40.18
36.37
33.56
32.07
31.93
32.86
34.31
35.65
36.43
36.45
35.79
34.69
33.39
32.08
30.85
29.70
28.61
27.52
26.36
25.00
23.41
21.57
19.57
17.51
15.46
13.38
11.16
8.67
5.90
3.00
0.33
-1.58
-2.15
-0.87
2.50
7.88
14.87
22.78
30.87
38.46
45.12
50.71
55.29
59.06
62.21
64.87
67.15
69.21
71.27
73.63
76.57
80.30
84.83
90.02
95.67
101.57
107.60
113.71
119.89
126.12
132.35
138.46
144.25
149.55
154.16
158.05
161.44
164.84
169.00
174.60
181.72
189.38
195.37
196.46
189.11
170.32
138.51
93.98
39.10
-21.99
-84.00
-141.41
-189.37
-224.48
-245.36
-252.67
-248.87
-237.54
-222.55
-207.28
-193.99
-183.58
-175.71
-169.18
-162.58
-154.76
-145.21
-134.04
-121.81
-109.27
-97.21
-86.29
-77.06
-69.71
-64.13
-59.87
-56.28
-52.76
-48.88
-44.44
-39.46
-34.05
-28.36
-22.59
-16.98
-11.85
-7.46
-3.97
-1.38
0.49
1.84
2.88
3.66
4.21
4.48
4.40
3.93
3.07
1.86
0.36
-1.29
-3.03
-4.90
-7.09
-9.85
-13.36
-17.52
-21.88
-25.71
-28.17
-28.65
-26.94
-23.23
-18.04
-12.00
-5.74
0.27
5.67
10.23
13.78
16.25
17.74
18.46
18.74
18.92
19.23
19.80
20.60
21.55
22.58
23.63
24.71
25.78
26.75
27.55
28.06
28.29
28.33
28.28
28.24
28.15
27.91
27.29
26.12
24.38
22.19
19.85
17.64
15.75
14.16
12.65
10.96
8.94
6.65
4.30
2.16
0.37
-1.13
-2.56
-4.20
-6.24
-8.77
-11.70
-14.92
-18.21
-21.24
-23.60
-24.84
-24.55
-22.53
-18.86
-13.86
-8.03
-1.90
4.06
9.42
13.90
17.30
19.57
20.80
21.22
21.13
20.84
20.58
20.50
20.68
21.12
21.76
22.48
23.14
23.64
23.96
24.17
24.40
24.71
25.01
25.07
24.62
23.51
21.81
19.79
17.81
16.07
14.54
12.96
10.90
7.96
3.82
-1.66
-8.34
-15.90
-23.77
-31.29
-37.75
-42.66
-45.82
-47.38
-47.81
-47.68
-47.57
-47.86
-48.68
-49.87
-51.06
-51.74
-51.38
-49.63
-46.35
-41.70
-36.01
-29.73
-23.23
-16.70
-10.15
-3.46
3.52
10.77
18.02
24.85
30.76
35.36
38.48
40.26
40.98
40.98
40.44
39.38
37.70
35.23
31.94
27.92
23.39
18.61
13.86
9.35
5.31
1.91
-0.62
-2.12
-2.48
-1.74
-0.07
2.18
4.61
6.82
8.51
9.52
9.81
9.44
8.44
6.83
4.60
1.73
-1.74
-5.66
-9.88
-14.24
-18.59
-22.79
-26.66
-29.99
-32.52
-34.04
-34.43
-33.72
-32.06
-29.70
-26.93
-24.07
-21.36
-19.02
-17.20
-15.98
-15.37
-15.38
-15.94
-16.96
-18.29
-19.74
-21.15
-22.38
-23.31
-23.89
-24.01
-23.55
-22.34
-20.24
-17.19
-13.24
-8.57
-3.41
1.99
7.38
12.57
17.38
21.69
25.38
28.36
30.52
31.72
31.85
30.92
29.06
26.57
23.81
21.08
18.53
16.16
13.90
11.64
9.31
6.84
4.19
1.32
-1.70
-4.57
-6.82
-7.87
-7.32
-5.11
-1.53
2.83
7.30
11.32
14.55
16.88
18.41
19.29
19.72
19.86
19.78
19.52
19.12
18.63
18.18
17.91
17.95
18.30
18.85
19.41
19.81
20.03
20.14
20.27
20.51
20.82
21.07
21.09
20.76
20.05
19.02
17.74
16.32
14.78
13.16
11.50
9.82
8.15
6.51
4.91
3.33
1.78
0.25
-1.26
-2.80
-4.43
-6.28
-8.46
-11.01
-13.84
-16.68
-19.11
-20.64
-20.84
-19.49
-16.63
-12.60
-7.89
-3.05
1.45
5.33
8.44
10.78
12.39
13.34
13.76
13.76
13.45
12.93
12.24
11.43
10.57
9.78
9.16
8.79
8.65
8.64
8.67
8.69
8.73
8.88
9.16
9.50
9.65
9.36
8.42
6.85
4.86
2.82
1.13
0.00
-0.52
-0.64
-0.65
-0.83
-1.43
-2.61
-4.56
-7.37
-10.93
-14.85
-18.52
-21.21
-22.39
-21.94
-20.08
-17.25
-13.85
-10.06
-5.93
-1.48
3.07
7.30
10.76
13.18
14.74
15.98
17.64
20.38
24.41
29.46
34.80
39.58
43.05
44.80
44.76
43.07
39.98
35.69
30.39
24.33
17.89
11.59
5.97
1.43
-1.89
-4.16
-5.73
-6.96
-8.02
-8.86
-9.32
-9.27
-8.83
-8.30
-8.07
-8.44
-9.41
-10.76
-12.14
-13.28
-14.10
-14.74
-15.43
-16.41
-17.82
-19.69
-21.90
-24.20
-26.17
-27.33
-27.26
-25.69
-22.63
-18.34
-13.28
-7.97
-2.86
1.72
5.59
8.69
11.05
12.69
13.68
14.06
13.91
13.34
12.55
11.80
11.30
11.17
11.41
11.93
12.64
13.46
14.30
15.06
15.60
15.73
15.28
14.22
12.68
10.94
9.32
7.99
6.92
5.88
4.57
2.78
0.50
-2.07
-4.59
-6.79
-8.54
-9.90
-11.08
-12.34
-13.84
-15.67
-17.85
-20.31
-23.00
-25.74
-28.29
-30.24
-31.21
-30.88
-29.17
-26.25
-22.45
-18.20
-13.88
-9.80
-6.16
-3.14
-0.87
0.56
1.11
0.89
0.06
-1.13
-2.40
-3.46
-4.06
-4.03
-3.34
-2.11
-0.57
1.03
2.53
3.85
4.94
5.79
6.34
6.51
6.28
5.74
5.07
4.49
4.14
4.01
3.95
3.73
3.16
2.15
0.80
-0.71
-2.19
-3.46
-4.51
-5.40
-6.27
-7.26
-8.52
-10.13
-12.06
-14.19
-16.20
-17.71
-18.31
-17.70
-15.75
-12.58
-8.47
-3.84
0.91
5.40
9.37
12.65
15.22
17.12
18.46
19.35
19.86
20.08
20.07
19.87
19.54
19.10
18.56
17.98
17.45
17.12
17.13
17.56
18.35
19.32
20.20
20.71
20.63
19.82
18.30
16.20
13.74
11.26
9.07
7.41
6.35
5.77
5.43
5.04
4.38
3.35
1.88
-0.07
-2.54
-5.57
-9.11
-12.95
-16.82
-20.40
-23.43
-25.70
-27.12
-27.62
-27.17
-25.78
-23.54
-20.56
-17.04
-13.20
-9.29
-5.61
-2.49
-0.18
1.24
1.86
1.94
1.77
1.63
1.71
2.07
2.73
3.65
4.75
5.90
6.93
7.70
8.07
8.02
7.62
7.00
6.30
5.60
4.92
4.21
3.40
2.42
1.26
-0.08
-1.56
-3.20
-5.03
-7.10
-9.42
-11.94
-14.52
-17.00
-19.26
-21.21
-22.84
-24.21
-25.44
-26.71
-28.17
-29.93
-31.95
-34.05
-35.96
-37.31
-37.78
-37.12
-35.16
-31.92
-27.63
-22.75
-17.88
-13.55
-10.10
-7.53
-5.54
-3.79
-2.08
-0.44
0.96
1.94
2.48
2.72
2.87
3.08
3.42
3.88
4.43
5.11
5.97
7.05
8.27
9.53
10.68
11.60
12.19
12.39
12.17
11.56
10.63
9.51
8.34
7.29
6.42
5.73
5.12
4.42
3.46
2.16
0.53
-1.28
-3.05
-4.58
-5.75
-6.63
-7.39
-8.26
-9.42
-10.93
-12.72
-14.62
-16.36
-17.67
-18.28
-17.99
-16.63
-14.19
-10.77
-6.57
-1.95
2.67
6.82
10.15
12.42
13.63
13.94
13.64
12.99
12.19
11.26
10.15
8.80
7.22
5.52
3.86
2.43
1.31
0.48
-0.15
-0.72
-1.32
-1.96
-2.62
-3.28
-4.03
-5.02
-6.42
-8.27
-10.43
-12.62
-14.54
-16.06
-17.27
-18.39
-19.62
-20.92
-22.08
-22.75
-22.65
-21.69
-19.95
-17.57
-14.69
-11.37
-7.68
-3.74
0.21
3.91
7.10
9.66
11.68
13.45
15.34
17.62
20.36
23.31
25.99
27.90
28.71
28.40
27.19
25.50
23.77
22.39
21.75
22.16
23.80
26.62
30.25
34.14
37.73
40.74
43.18
45.28
47.27
49.16
50.66
51.34
50.72
48.51
44.65
39.35
33.03
26.19
19.27
12.50
5.85
-0.93
-8.11
-15.78
-23.70
-31.37
-38.13
-43.43
-47.00
-48.77
-48.90
-47.62
-45.23
-42.16
-39.04
-36.68
-35.80
-36.77
-39.32
-42.51
-44.97
-45.39
-42.90
-37.33
-29.10
-19.02
-8.03
2.93
12.95
21.24
27.30
31.16
33.40
34.92
36.42
37.96
38.93
38.49
36.20
32.46
28.31
24.82
22.40
20.55
18.30
14.86
10.30
5.52
1.69
-0.43
-1.02
-1.07
-1.79
-3.98
-7.69
-12.30
-16.93
-20.92
-24.09
-26.71
-29.26
-32.09
-35.20
-38.24
-40.70
-42.15
-42.49
-41.97
-41.12
-40.45
-40.33
-40.85
-41.84
-43.00
-43.98
-44.46
-44.14
-42.77
-40.16
-36.20
-31.00
-24.91
-18.43
-12.11
-6.45
-1.69
2.10
5.06
7.36
9.20
10.71
11.95
12.98
13.84
14.59
15.31
16.09
17.01
18.05
19.13
20.16
21.03
21.71
22.26
22.73
23.13
23.37
23.34
22.94
22.16
21.07
19.81
18.46
17.03
15.46
13.68
11.63
9.32
6.83
4.23
1.64
-0.84
-3.11
-5.10
-6.89
-8.61
-10.44
-12.54
-14.85
-17.13
-18.98
-19.94
-19.66
-18.04
-15.24
-11.60
-7.61
-3.69
-0.17
2.78
5.20
7.17
8.84
10.23
11.26
11.79
11.73
11.20
10.46
9.93
9.94
10.62
11.92
13.61
15.44
17.26
19.03
20.84
22.80
24.98
27.35
29.82
32.22
34.37
36.06
37.05
37.08
36.01
33.89
31.09
28.24
26.09
25.10
25.27
25.97
26.19
25.00
22.05
17.90
13.84
11.33
11.33
13.75
17.42
20.45
20.84
16.94
7.76
-7.04
-27.12
-51.30
-77.53
-102.95
-124.49
-139.68
-147.46
-148.44
-144.52
-137.96
-130.56
-123.21
-115.97
-108.56
-100.75
-92.50
-83.85
-74.72
-64.85
-53.94
-41.88
-28.90
-15.52
-2.40
9.90
20.99
30.66
38.79
45.30
50.12
53.33
55.09
55.69
55.36
54.19
52.04
48.55
43.37
36.25
27.22
16.60
4.96
-7.03
-18.76
-29.70
-39.53
-47.97
-54.85
-59.95
-63.07
-64.11
-63.19
-60.68
-57.18
-53.30
-49.55
-46.19
-43.18
-40.31
-37.38
-34.25
-30.93
-27.46
-23.79
-19.74
-14.98
-9.18
-2.19
5.84
14.51
23.29
31.70
39.44
46.36
52.47
57.76
62.19
65.64
68.05
69.42
69.86
69.59
68.88
68.07
67.57
67.78
69.03
71.39
74.58
77.96
80.74
82.18
81.94
80.18
77.51
74.75
72.68
71.82
72.31
74.01
76.60
79.73
83.10
86.48
89.60
92.02
93.10
92.12
88.55
82.33
73.96
64.35
54.40
44.63
35.01
25.09
14.42
2.87
-9.11
-20.62
-30.59
-38.12
-42.63
-43.97
-42.32
-38.09
-31.84
-24.31
-16.37
-9.08
-3.41
-0.09
0.54
-1.39
-5.48
-11.18
-17.94
-25.21
-32.61
-39.80
-46.48
-52.51
-57.79
-62.26
-65.65
-67.29
-66.13
-61.31
-52.52
-40.20
-25.47
-9.68
5.99
20.80
34.39
46.63
56.80
63.72
66.08
62.88
53.97
40.11
22.85
4.37
-12.55
-25.46
-32.24
-31.61
-23.77
-10.81
3.38
13.98
16.98
13.94
8.54
6.07
10.50
22.19
38.44
55.47
70.25
81.50
87.88
90.69
90.93
88.79
83.99
76.03
64.37
48.18
25.83
-0.36
-30.26
-64.35
-102.21
-141.21
-176.14
-200.23
-207.42
-194.71
-163.34
-119.11
-69.81
-22.56
18.09
50.44
74.64
91.35
100.94
103.75
100.15
91.38
79.45
66.44
53.69
41.51
29.36
16.47
2.61
-11.95
-26.38
-39.74
-51.41
-61.28
-69.57
-76.48
-81.88
-85.32
-86.32
-84.60
-80.24
-73.66
-65.61
-56.94
-48.53
-41.13
-35.17
-30.71
-27.27
-23.97
-19.99
-15.00
-9.40
-4.22
-0.48
1.43
2.16
3.19
6.12
11.82
19.81
28.52
35.81
39.95
40.23
37.06
31.62
25.24
19.05
13.81
10.02
8.05
8.14
10.41
14.60
20.10
26.04
31.56
36.08
39.43
41.68
42.93
42.87
40.61
34.78
23.90
7.01
-15.75
-42.88
-71.71
-99.10
-122.24
-139.39
-150.03
-154.63
-153.95
-148.69
-139.22
-125.88
-109.25
-90.31
-70.14
-49.40
-28.00
-5.10
20.26
48.35
78.27
107.88
134.41
155.16
168.19
172.57
168.42
156.84
139.65
119.18
97.65
76.61
56.60
37.28
18.11
-0.87
-18.48
-32.71
-41.55
-44.01
-40.61
-33.14
-23.87
-14.56
-5.99
2.19
10.97
21.47
34.12
48.11
61.16
69.79
69.93
57.96
31.62
-8.94
-60.55
-116.91
-169.20
-207.76
-224.76
-216.77
-186.24
-140.84
-90.79
-45.42
-10.81
10.79
19.72
17.26
4.96
-14.85
-38.33
-60.10
-74.81
-79.22
-73.62
-61.59
-48.10
-37.12
-30.14
-26.31
-23.68
-20.81
-17.40
-14.18
-12.20
-12.05
-13.60
-16.18
-19.05
-21.66
-23.99
-26.35
-29.21
-32.87
-37.23
-41.72
-45.42
-47.38
-46.79
-43.26
-36.81
-27.87
-17.17
-5.71
5.47
15.43
23.47
29.29
32.93
34.68
34.96
34.19
32.75
31.01
29.23
27.54
26.01
24.61
23.36
22.38
21.86
21.97
22.74
24.00
25.39
26.48
26.82
26.08
24.19
21.38
18.13
14.98
12.24
9.80
7.12
3.46
-1.76
-8.53
-16.12
-23.30
-28.73
-31.52
-31.46
-28.87
-24.28
-18.09
-10.46
-1.55
8.21
18.00
26.76
33.57
38.05
40.46
41.46
41.68
41.34
40.15
37.60
33.34
27.57
21.01
14.72
9.78
6.86
6.02
6.61
7.56
7.73
6.43
3.61
-0.08
-3.71
-6.52
-8.23
-9.29
-10.61
-13.40
-18.80
-27.65
-40.22
-55.91
-73.14
-89.45
-102.17
-109.26
-110.08
-105.63
-97.88
-88.65
-78.59
-66.92
-52.03
-32.67
-8.85
17.87
44.99
69.99
91.15
107.76
120.02
128.58
134.25
137.88
140.27
141.99
143.36
144.37
144.75
144.16
142.25
138.58
132.58
123.67
111.55
96.52
79.60
62.35
46.22
32.04
19.66
8.16
-3.65
-16.75
-31.42
-47.25
-63.27
-78.16
-90.61
-99.56
-104.48
-105.47
-103.02
-97.60
-89.29
-77.59
-61.77
-41.41
-16.94
10.21
37.96
64.25
87.68
107.80
124.95
140.01
153.85
167.09
179.91
192.02
202.63
210.42
213.67
210.64
200.30
182.93
160.46
136.00
112.76
92.78
76.16
61.16
45.44
27.51
7.69
-12.09
-29.46
-43.03
-53.11
-61.08
-68.08
-73.76
-76.13
-72.74
-62.44
-46.67
-29.54
-16.42
-11.93
-18.24
-34.49
-57.38
-82.64
-106.46
-126.28
-140.96
-150.34
-154.64
-154.17
-149.25
-140.31
-128.03
-113.43
-97.63
-81.78
-66.81
-53.48
-42.46
-34.35
-29.67
-28.62
-30.93
-35.76
-41.88
-47.90
-52.57
-55.00
-55.02
-53.02
-49.83
-46.67
-44.92
-45.73
-49.59
-56.16
-64.23
-72.37
-79.05
-83.06
-83.87
-81.72
-77.51
-72.39
-67.39
-63.06
-59.87
-57.73
-56.04
-54.23
-52.10
-49.98
-48.42
-47.99
-48.97
-52.66
-59.55
-68.86
-78.83
-87.65
-93.94
-96.73
-95.87
-91.55
-86.69
-82.75
-78.58
-71.50
-59.75
-43.87
-25.98
-9.27
4.01
9.00
3.75
-9.97
-28.59
-49.78
-73.37
-99.48
-128.49
-159.32
-195.18
-236.82
-280.72
-320.46
-350.20
-367.08
-370.44
-362.72
-312.50
-211.68
-80.29
47.70
149.64
221.36
265.20
293.70
313.57
328.29
335.37
334.31
326.06
314.32
302.11
289.22
273.73
252.59
220.80
176.50
125.58
79.81
44.77
22.31
11.86
11.50
17.84
28.17
38.47
45.64
48.08
45.78
39.96
31.88
22.92
13.83
5.33
-3.10
-12.35
-22.88
-34.23
-44.59
-51.99
-54.70
-51.86
-43.32
-29.98
-13.81
2.46
16.06
25.19
29.19
28.70
25.48
21.95
20.51
22.51
27.98
35.89
44.91
53.54
60.18
63.31
61.79
55.45
45.20
32.82
20.12
7.98
-4.36
-18.68
-36.23
-56.17
-74.88
-86.98
-87.51
-74.23
-48.96
-17.02
14.63
39.85
55.19
60.61
58.84
53.95
49.81
48.98
52.52
60.33
71.94
86.97
105.11
125.54
146.32
164.50
176.80
180.80
175.87
163.31
145.74
126.05
106.54
88.57
72.72
59.13
47.75
38.37
30.73
24.46
19.20
14.63
10.38
6.01
0.86
-5.71
-14.13
-24.29
-35.58
-47.12
-58.12
-68.23
-77.56
-86.44
-95.02
-103.10
-110.09
-115.22
-117.82
-117.38
-113.62
-106.51
-96.30
-83.62
-69.45
-55.06
-41.74
-30.42
-21.35
-13.97
-7.01
0.89
10.51
21.49
32.17
40.16
43.32
40.89
34.10
26.04
20.46
20.06
25.43
34.45
43.10
47.08
43.28
30.59
9.66
-18.01
-50.86
-87.43
-125.70
-162.46
-193.10
-212.55
-216.90
-204.65
-176.89
-136.26
-85.40
-26.58
37.71
103.24
163.34
209.97
236.39
240.00
223.55
194.02
159.61
126.92
99.31
77.16
59.62
45.84
35.41
27.97
22.54
17.58
11.71
4.52
-3.08
-9.20
-11.58
-8.67
-0.13
13.03
28.86
45.30
60.69
74.15
85.54
94.91
101.83
105.11
102.74
92.96
75.15
50.62
22.88
-2.99
-21.40
-27.85
-20.47
-1.11
25.32
52.06
72.28
81.15
77.55
64.55
48.49
36.80
34.96
45.69
67.91
96.72
124.71
144.07
148.88
136.58
108.23
67.16
19.71
-26.91
-67.21
-99.34
-125.53
-150.58
-179.60
-215.75
-259.59
-306.37
-348.14
-377.08
-388.70
-382.94
-363.04
-333.85
-293.85
-248.74
-207.19
-175.31
-153.88
-139.35
-128.58
-119.41
-109.31
-95.15
-77.87
-57.31
-33.22
-6.00
23.26
53.09
82.23
109.48
133.17
150.36
159.49
160.49
154.45
143.09
128.27
112.08
96.54
83.25
72.66
65.21
60.70
57.84
54.37
47.93
37.35
23.12
7.16
-8.49
-21.90
-32.30
-40.29
-47.49
-55.59
-65.35
-76.14
-86.13
-93.10
-95.18
-91.70
-83.41
-71.95
-58.78
-44.03
-26.25
-3.08
27.33
65.09
107.82
150.86
188.33
214.59
225.58
219.73
198.20
164.60
124.17
82.82
46.16
18.71
3.47
1.69
12.76
34.42
63.15
94.91
126.01
153.71
176.35
192.84
202.25
203.74
197.19
183.81
166.26
148.01
131.95
119.46
110.17
102.84
96.67
92.32
91.96
98.50
114.55
141.54
179.26
225.60
276.44
325.83
366.83
393.11
400.68
389.20
361.89
324.19
281.63
238.25
195.88
154.80
114.67
75.32
36.78
-0.95
-37.95
-74.07
-108.41
-139.19
-164.43
-182.95
-195.19
-203.38
-210.62
-219.71
-232.02
-247.40
-264.60
-282.27
-299.46
-315.66
-330.39
-342.79
-351.45
-354.90
-352.11
-342.98
-328.45
-310.18
-290.08
-269.70
-249.96
-231.20
-213.43
-196.74
-181.46
-168.13
-157.30
-149.21
-143.59
-139.72
-136.61
-133.39
-129.54
-125.02
-120.15
-115.31
-110.65
-105.97
-100.86
-94.95
-88.17
-80.84
-73.48
-66.52
-60.14
-54.18
-48.37
-42.58
-37.03
-32.28
-28.88
-27.00
-26.11
-24.98
-21.89
-15.28
-4.17
11.45
30.65
51.83
73.11
92.77
109.43
122.16
130.54
134.58
134.75
131.90
127.08
121.42
115.95
111.56
109.01
108.80
111.19
116.00
122.69
130.49
138.62
146.56
154.12
161.32
168.20
174.49
179.55
182.39
181.94
177.28
167.78
153.25
133.86
110.09
82.78
53.11
22.69
-6.52
-32.37
-52.87
-66.55
-72.78
-71.90
-65.11
-54.23
-41.30
-28.14
-16.12
-6.00
2.06
8.29
13.28
17.73
22.34
27.64
33.77
40.22
45.80
48.89
48.13
43.03
34.47
24.42
15.16
8.37
4.40
2.37
0.76
-1.84
-6.23
-12.53
-20.56
-30.17
-41.50
-54.83
-70.43
-88.31
-108.10
-128.95
-149.60
-168.53
-184.24
-195.67
-202.39
-204.62
-202.98
-198.13
-190.54
-180.40
-167.79
-152.74
-135.48
-116.35
-95.91
-74.79
-53.61
-32.58
-11.46
10.47
33.86
58.55
83.18
105.24
122.00
131.60
133.94
130.65
124.37
117.41
110.86
104.36
96.75
87.02
75.17
62.49
50.99
42.64
38.42
37.89
39.30
40.11
37.84
30.74
18.20
0.87
-19.58
-40.81
-60.24
-75.53
-85.04
-88.33
-86.29
-81.00
-75.25
-71.70
-72.14
-77.05
-85.71
-96.69
-108.61
-120.67
-132.76
-145.06
-157.51
-169.52
-179.97
-187.66
-191.85
-192.60
-190.75
-187.75
-185.37
-185.25
-188.48
-195.02
-203.10
-209.32
-209.33
-199.31
-177.52
-145.18
-106.29
-66.45
-31.14
-4.45
11.49
16.18
10.00
-6.36
-32.07
-65.86
-105.44
-147.20
-186.37
-217.94
-238.07
-245.34
-241.39
-230.41
-217.59
-207.12
-200.73
-197.28
-193.82
-187.28
-176.12
-161.00
-144.36
-128.92
-116.17
-105.42
-94.02
-78.31
-55.07
-22.43
20.11
71.75
130.01
190.09
244.73
285.78
307.20
308.34
295.55
280.26
273.91
282.39
303.26
327.52
345.16
350.74
346.00
338.18
335.91
345.05
366.98
399.36
438.06
478.89
517.38
548.51
566.90
568.30
551.12
517.14
471.11
419.03
367.53
321.58
283.30
251.88
224.72
198.42
169.41
134.85
93.15
46.75
-0.26
-44.41
-83.99
-118.18
-146.19
-167.24
-180.21
-184.81
-178.45
-160.16
-132.59
-101.44
-71.81
-45.84
-23.68
-4.15
12.87
31.27
55.14
86.87
126.27
172.46
223.84
276.10
323.38
332.57
283.94
186.74
74.95
-20.09
-85.72
-122.80
-146.07
-164.58
-182.15
-195.24
-200.79
-198.03
-192.79
-192.78
-203.53
-227.57
-262.90
-304.87
-343.35
-367.90
-372.04
-356.18
-325.71
-288.45
-253.03
-225.60
-209.40
-201.89
-197.94
-193.03
-185.45
-175.12
-162.05
-146.06
-126.17
-102.08
-73.62
-42.14
-10.88
15.53
33.24
40.65
38.56
29.88
18.11
6.66
-2.23
-7.98
-11.53
-14.41
-18.06
-23.60
-31.58
-41.99
-54.03
-66.03
-75.71
-80.95
-80.42
-74.09
-63.23
-49.89
-36.20
-23.84
-13.76
-6.25
-0.83
3.75
9.55
18.81
33.13
52.43
74.49
95.52
111.52
120.01
120.86
116.11
108.67
100.73
92.77
83.64
71.71
56.08
37.45
17.88
-0.00
-14.12
-23.57
-28.68
-30.49
-30.04
-27.95
-24.38
-19.38
-13.22
-6.66
-0.96
2.54
2.73
-0.80
-7.60
-16.46
-25.68
-33.50
-38.54
-40.07
-38.07
-33.01
-25.47
-15.84
-4.22
9.42
24.95
41.81
58.97
75.18
89.40
101.17
110.70
118.89
127.02
136.46
148.31
163.05
180.38
199.28
218.35
236.31
252.29
265.83
276.69
284.39
288.08
286.54
278.49
262.86
239.04
206.98
167.23
120.98
69.85
15.68
-40.06
-96.48
-153.31
-210.15
-265.61
-316.68
-358.90
-387.44
-398.67
-391.45
-367.79
-332.47
-291.86
-252.57
-220.16
-198.19
-187.74
-187.33
-193.40
-201.11
-205.65
-203.33
-192.31
-172.72
-146.13
-114.61
-79.86
-42.75
-3.52
37.53
79.34
119.79
156.11
185.73
207.11
220.19
226.03
226.25
222.49
216.27
209.21
203.13
199.74
199.77
202.14
203.73
200.13
187.14
162.19
125.09
77.96
24.39
-31.28
-84.53
-130.77
-165.50
-184.41
-183.85
-161.57
-117.61
-55.27
18.31
92.71
155.80
196.36
207.06
186.91
142.07
84.40
28.07
-14.57
-36.42
-37.07
-22.06
-0.30
19.09
29.31
27.30
13.72
-8.06
-33.49
-58.25
-79.15
-94.54
-104.09
-108.44
-108.68
-106.02
-101.72
-97.14
-93.81
-92.89
-94.82
-99.01
-103.74
-106.35
-103.82
-93.09
-71.30
-36.65
10.70
67.67
128.42
185.65
233.00
267.03
288.07
299.24
304.27
305.51
302.91
294.75
279.24
255.83
225.56
190.26
151.26
108.52
61.18
9.09
-45.46
-97.18
-139.05
-164.96
-172.60
-164.96
-149.43
-134.79
-127.81
-131.05
-142.62
-157.98
-172.39
-182.83
-188.60
-190.57
-190.21
-188.89
-187.69
-187.71
-190.19
-196.11
-205.69
-217.75
-229.32
-236.20
-234.16
-220.36
-194.29
-157.82
-114.39
-67.82
-21.57
21.73
60.22
92.86
119.57
141.43
160.40
178.41
196.20
212.48
224.12
227.19
218.77
198.17
167.22
129.28
87.65
43.90
-2.74
-54.63
-113.69
-179.12
-246.13
-306.58
-351.47
-374.26
-373.23
-351.67
-316.06
-273.24
-228.06
-182.68
-137.52
-92.39
-47.21
-1.76
44.73
93.54
145.47
199.53
251.96
296.62
326.43
334.94
318.35
276.87
215.65
144.66
77.03
25.70
-0.77
-1.31
17.20
42.97
64.32
74.26
72.30
62.99
52.11
43.45
37.38
31.94
25.12
16.63
8.08
1.75
-0.96
-0.36
1.74
3.10
2.24
-0.87
-5.02
-8.68
-11.08
-12.80
-15.51
-20.84
-29.19
-39.07
-47.72
-52.26
-51.15
-44.56
-34.05
-21.63
-8.96
2.80
12.83
20.36
24.70
25.61
23.67
20.22
16.89
15.04
15.50
18.65
24.69
33.76
45.60
59.26
72.90
84.20
91.23
93.30
91.39
87.74
85.07
85.71
91.12
101.90
117.97
138.56
161.78
184.35
201.73
209.21
203.78
185.44
157.37
124.23
89.85
55.63
20.83
-15.54
-52.65
-87.06
-113.88
-129.43
-133.37
-129.08
-121.79
-115.87
-113.09
-112.67
-112.81
-112.67
-112.92
-114.87
-118.73
-122.70
-123.47
-118.08
-105.74
-88.51
-70.54
-56.10
-47.70
-45.34
-46.98
-49.91
-52.09
-52.74
-52.09
-50.68
-48.47
-44.48
-37.18
-25.20
-8.02
13.69
38.27
63.64
87.97
110.24
130.07
147.18
160.90
169.89
172.55
167.85
156.05
138.81
118.47
96.76
73.84
48.30
18.30
-16.57
-53.95
-88.76
-114.98
-128.36
-128.68
-120.33
-110.71
-107.50
-115.69
-135.95
-164.94
-196.90
-225.93
-247.83
-260.83
-265.24
-262.67
-255.09
-244.35
-232.13
-219.90
-208.80
-199.52
-192.18
-186.12
-180.25
-173.33
-164.49
-153.56
-141.12
-128.20
-115.95
-105.22
-96.13
-87.97
-79.21
-67.74
-51.35
-28.10
3.11
42.11
87.07
134.51
179.56
217.14
243.14
255.45
254.37
242.23
222.68
200.03
178.61
162.37
154.22
155.39
164.62
178.22
190.86
197.00
192.46
175.52
147.16
111.16
73.76
42.83
26.05
28.17
48.34
79.22
108.96
125.68
122.41
99.77
65.10
28.45
-2.06
-23.04
-35.35
-41.61
-43.52
-41.03
-33.32
-20.79
-6.08
6.63
13.37
12.31
4.39
-7.30
-19.05
-28.04
-33.30
-35.70
-37.19
-39.88
-45.09
-52.92
-62.18
-70.83
-76.74
-78.66
-76.80
-72.64
-68.20
-64.73
-62.03
-58.38
-51.41
-39.35
-22.23
-2.14
17.73
34.55
46.98
55.38
61.09
65.44
69.37
72.69
74.46
74.03
71.95
69.97
70.38
74.98
84.35
98.51
115.35
130.97
140.87
141.74
132.77
116.03
96.17
79.36
72.94
81.21
103.50
134.57
166.80
192.75
207.16
208.27
198.15
183.36
169.70
159.62
151.88
143.60
132.39
117.50
100.04
70.27
27.29
-20.90
-63.54
-95.69
-118.72
-135.18
-145.83
-149.65
-147.11
-137.56
-123.42
-110.27
-104.53
-110.65
-129.79
-160.19
-198.49
-235.04
-259.55
-264.53
-247.93
-213.99
-171.46
-130.66
-100.23
-84.53
-82.72
-89.55
-98.82
-105.78
-107.82
-103.58
-92.12
-72.82
-45.75
-12.29
24.57
60.28
89.39
107.18
111.22
102.11
82.90
57.79
30.79
4.57
-19.80
-42.38
-63.55
-83.30
-100.88
-115.01
-124.10
-126.57
-121.31
-108.01
-87.53
-61.96
-34.16
-6.90
17.63
38.11
53.98
65.11
72.00
75.97
79.28
84.56
93.85
107.50
123.81
139.57
151.18
155.87
152.29
140.28
120.21
92.37
56.88
13.95
-35.29
-88.16
-140.32
-185.84
-218.15
-231.35
-222.10
-191.64
-146.79
-99.11
-61.69
-44.62
-51.16
-76.43
-109.73
-139.38
-157.77
-163.83
-161.89
-157.83
-154.83
-151.53
-143.11
-124.35
-92.56
-48.75
3.03
56.99
106.71
145.41
166.68
165.65
141.17
97.57
44.26
-6.81
-45.10
-65.01
-66.81
-55.09
-35.50
-12.32
12.58
38.88
66.32
93.90
120.23
144.66
167.93
191.74
217.29
243.59
267.07
282.61
285.55
273.52
247.20
209.66
164.97
117.00
69.19
25.13
-10.87
-33.99
-40.19
-28.13
-0.52
35.77
71.21
96.07
103.29
90.08
58.31
13.21
-38.74
-91.74
-141.88
-186.97
-226.03
-258.36
-283.20
-299.78
-307.30
-304.94
-291.66
-266.71
-230.71
-186.81
-140.77
-99.55
-68.66
-49.58
-39.07
-30.74
-18.51
0.46
24.53
48.78
67.68
77.71
78.52
72.53
63.72
55.90
51.52
51.21
54.03
58.24
62.05
64.08
62.99
57.06
43.90
21.60
-9.64
-46.31
-81.47
-106.56
-114.28
-101.31
-69.38
-24.41
25.61
73.05
112.05
139.06
152.55
152.82
141.87
123.30
102.15
84.11
74.13
74.85
85.51
102.06
118.42
128.90
130.53
124.20
113.97
104.96
100.91
102.88
109.15
116.61
122.29
124.26
121.85
115.19
104.84
91.54
76.29
60.27
44.52
29.57
15.03
-0.22
-17.48
-37.57
-60.29
-84.44
-108.26
-129.97
-148.20
-161.99
-170.61
-173.33
-169.43
-158.43
-140.40
-115.98
-86.27
-52.60
-16.48
20.30
55.48
86.50
110.98
127.39
135.55
136.51
131.97
123.34
111.30
95.85
76.92
55.08
31.66
8.52
-12.67
-30.81
-45.50
-56.55
-63.68
-66.39
-64.15
-56.86
-45.13
-30.33
-14.33
0.93
13.86
23.44
29.34
31.92
32.07
30.95
29.70
28.99
28.68
27.70
24.23
16.18
1.78
-19.99
-49.18
-84.90
-125.43
-168.13
-209.54
-245.52
-271.90
-285.37
-284.38
-269.69
-244.17
-212.06
-177.84
-145.28
-116.89
-93.89
-76.41
-63.80
-54.92
-48.28
-42.45
-36.34
-29.46
-21.88
-14.09
-6.70
-0.27
4.86
8.63
11.17
12.58
12.87
12.02
10.02
6.90
2.71
-2.42
-8.10
-13.77
-18.81
-22.55
-24.32
-23.69
-20.59
-15.50
-9.26
-2.32
4.98
12.18
18.74
24.24
28.52
31.71
34.25
36.79
41.15
48.63
59.18
71.27
82.75
91.83
97.57
100.06
100.23
101.06
104.87
111.83
120.01
127.02
131.54
133.99
136.15
140.20
149.60
165.57
185.77
205.63
221.12
230.55
234.50
234.32
217.58
177.79
119.59
57.62
6.65
-26.07
-41.42
-45.61
-46.92
-52.04
-61.21
-71.49
-79.88
-85.02
-87.45
-89.04
-92.10
-98.27
-107.71
-117.49
-121.57
-116.95
-103.66
-84.36
-63.28
-44.76
-32.05
-26.17
-24.81
-24.59
-23.74
-22.84
-24.50
-32.04
-47.76
-71.72
-101.46
-132.55
-160.98
-185.20
-206.08
-225.82
-246.10
-266.66
-284.96
-297.14
-299.47
-290.03
-269.89
-242.36
-211.68
-181.58
-154.10
-129.48
-106.66
-84.15
-60.82
-36.20
-10.46
15.76
41.39
65.07
85.16
100.07
108.75
111.16
108.37
102.23
94.75
87.34
80.62
74.47
68.54
62.63
56.80
51.24
46.04
41.12
36.29
31.36
26.20
20.78
15.05
8.85
1.90
-6.11
-15.35
-25.63
-36.30
-46.25
-54.19
-59.02
-60.21
-58.12
-53.83
-48.70
-43.90
-39.93
-36.23
-31.96
-26.46
-19.86
-12.28
-3.90
5.09
14.58
24.53
35.40
47.55
61.12
75.65
90.85
106.29
121.27
134.75
145.63
153.82
159.37
162.23
161.61
157.82
151.56
143.60
134.36
124.11
115.17
108.98
105.01
99.33
90.58
78.93
65.85
53.04
42.43
40.08
49.60
69.88
92.42
113.67
132.90
151.41
170.12
189.76
217.42
256.88
305.35
349.51
384.78
411.32
432.35
450.10
466.43
491.63
531.90
584.91
633.86
671.97
697.25
710.82
712.75
647.97
494.52
276.35
93.45
-39.21
-130.58
-204.37
-269.53
-331.45
-392.51
-443.28
-475.47
-487.27
-490.74
-488.85
-481.56
-467.41
-447.07
-421.08
-382.67
-328.45
-263.09
-204.05
-161.55
-140.51
-140.29
-158.05
-188.93
-223.22
-253.39
-276.14
-294.49
-305.64
-304.33
-285.57
-248.59
-196.72
-134.10
-66.85
-2.40
50.03
85.34
101.43
98.74
79.34
47.00
7.45
-33.53
-71.34
-103.59
-128.46
-145.35
-155.25
-161.01
-166.38
-174.54
-186.47
-199.93
-210.02
-211.07
-199.06
-173.45
-137.21
-95.39
-53.08
-14.08
19.18
44.77
60.46
63.92
53.90
31.67
1.88
-28.16
-50.54
-59.40
-53.18
-35.38
-13.34
4.78
13.51
12.43
6.18
2.08
6.32
20.86
42.56
64.99
81.77
89.43
88.37
81.58
72.36
62.54
52.12
40.28
26.84
12.84
0.52
-7.55
-9.55
-5.10
4.54
16.92
29.29
39.54
46.97
52.37
57.62
64.78
75.25
89.03
104.51
118.78
128.29
129.82
121.54
103.81
79.34
52.87
30.09
15.95
13.01
20.17
32.50
42.30
41.37
23.82
-11.50
-59.97
-112.29
-157.40
-186.14
-194.17
-182.84
-157.84
-126.41
-94.53
-65.53
-40.21
-18.32
0.03
13.75
21.16
21.01
13.59
1.26
-11.76
-20.50
-20.92
-11.68
4.98
23.93
39.31
47.24
47.65
44.15
42.13
45.73
55.77
69.34
81.17
85.91
79.94
62.26
34.27
-0.59
-37.44
-70.56
-94.60
-106.02
-104.32
-92.14
-74.23
-55.71
-40.68
-31.92
-31.11
-39.07
-55.33
-77.30
-100.02
-117.02
-122.50
-113.80
-92.87
-65.41
-38.57
-17.87
-5.50
-0.53
-0.25
-1.84
-3.23
-3.42
-2.02
1.11
6.48
14.40
24.46
35.33
45.16
52.15
55.14
53.92
49.14
42.87
37.15
32.97
29.89
26.70
22.34
16.57
10.07
4.11
1.51
4.71
14.38
29.05
45.97
62.37
76.24
86.62
93.66
100.03
108.87
122.01
139.29
159.37
181.00
203.37
225.69
235.95
223.95
187.26
133.47
74.39
19.59
-25.49
-58.99
-82.03
-99.00
-113.16
-125.80
-137.27
-147.19
-154.32
-156.87
-153.69
-145.23
-129.59
-106.97
-78.87
-48.39
-19.26
5.20
22.70
31.98
32.89
26.82
17.20
8.86
5.44
8.82
18.72
32.78
46.85
56.48
58.47
51.88
37.94
17.86
-6.78
-33.98
-61.24
-85.84
-104.97
-116.06
-117.67
-105.07
-79.69
-49.60
-24.63
-10.29
-6.51
-10.04
-17.02
-24.53
-30.76
-36.14
-40.61
-43.15
-42.55
-38.42
-31.52
-23.24
-14.98
-7.70
-2.32
0.63
1.63
1.76
1.81
2.10
2.59
3.13
3.55
3.32
2.25
0.71
-0.71
-1.64
-1.96
-1.76
-1.20
-0.52
-0.24
-0.78
-2.26
-4.52
-7.30
-10.27
-13.03
-15.13
-16.15
-15.81
-13.92
-10.39
-5.37
0.78
7.49
14.15
20.15
25.01
28.32
29.86
29.63
27.88
25.06
21.75
18.45
15.49
12.98
10.86
8.94
7.08
5.18
3.21
1.22
-0.69
-2.37
-3.65
-4.46
-4.88
-5.16
-5.65
-6.68
-8.43
-10.85
-13.63
-16.30
-18.34
-19.31
-18.96
-17.29
-14.55
-11.15
-7.64
-4.51
-2.15
-0.73
-0.22
-0.44
-1.14
-2.09
-3.10
-4.10
-5.05
-6.00
-7.04
-8.25
-9.59
-10.94
-12.05
-12.64
-12.52
-11.70
-10.45
-9.25
-8.67
-9.19
-11.04
-14.05
-17.68
-21.09
-23.38
-23.82
-22.12
-18.52
-13.66
-8.38
-3.41
0.88
4.44
7.41
9.94
12.05
13.63
14.56
14.86
14.71
14.37
14.12
14.16
14.57
15.38
16.59
18.14
19.93
21.85
23.76
25.56
27.16
28.45
29.28
29.42
28.68
26.94
24.26
20.89
17.22
13.72
10.90
9.26
9.27
11.25
15.26
20.95
27.59
34.17
39.73
43.60
45.66
46.19
45.80
45.08
44.46
44.06
43.83
43.64
43.42
43.27
43.33
43.77
44.62
45.77
47.02
48.13
48.95
49.37
49.25
48.30
46.15
42.43
36.95
29.81
21.32
11.86
1.73
-8.75
-19.02
-28.13
-34.84
-38.04
-37.24
-32.97
-26.57
-19.68
-13.60
-8.84
-5.22
-2.23
0.45
2.79
4.48
5.26
5.21
4.71
4.26
4.10
4.11
3.88
2.95
1.19
-1.07
-3.08
-4.00
-3.23
-0.73
2.95
6.87
10.06
11.76
11.62
9.73
6.56
2.84
-0.67
-3.30
-4.67
-4.74
-3.77
-2.15
-0.24
1.69
3.53
5.18
6.59
7.75
8.81
10.06
11.92
14.67
18.24
22.15
25.62
27.90
28.55
27.62
25.70
23.71
22.61
23.19
25.76
30.09
35.52
41.18
46.38
50.96
55.48
61.14
69.27
80.56
94.36
108.33
118.83
122.01
115.20
97.92
72.23
41.99
11.60
-15.35
-36.92
-52.80
-63.83
-71.22
-76.10
-79.40
-81.95
-84.58
-87.95
-92.30
-97.23
-101.68
-104.27
-103.86
-99.92
-92.86
-83.84
-74.41
-66.02
-59.66
-55.64
-53.61
-52.73
-51.86
-49.95
-46.36
-41.08
-34.62
-27.86
-21.57
-16.11
-11.31
-6.60
-1.29
5.12
12.74
21.30
30.22
38.87
46.70
53.28
58.37
61.77
63.31
62.88
60.51
56.52
51.60
46.61
42.35
39.23
37.05
35.11
32.42
28.12
21.72
13.25
3.29
-7.20
-17.04
-25.13
-30.73
-33.63
-34.19
-33.14
-31.30
-29.26
-27.35
-25.66
-24.23
-23.14
-22.44
-22.09
-21.93
-21.70
-21.24
-20.62
-20.11
-20.06
-20.67
-21.80
-22.93
-23.33
-22.26
-19.28
-14.46
-8.40
-2.12
3.28
6.87
8.17
7.29
4.93
2.16
0.19
-0.12
1.54
4.78
8.66
12.11
14.29
14.93
14.31
12.99
11.56
10.34
9.41
8.71
8.30
8.36
9.19
11.00
13.77
17.18
20.70
23.76
25.93
27.15
27.62
27.77
27.97
28.38
28.91
29.37
29.72
30.25
31.65
34.75
40.18
48.07
57.99
69.09
80.45
91.40
101.56
110.86
119.28
126.86
133.68
139.99
146.27
153.04
160.61
168.96
177.67
186.18
194.13
201.62
209.02
216.64
224.16
230.49
233.89
232.67
225.91
213.93
198.31
181.25
164.79
150.11
137.28
125.48
113.61
100.70
86.31
70.50
53.67
36.48
19.57
3.45
-11.78
-26.49
-41.52
-57.76
-75.84
-95.81
-117.16
-139.15
-161.33
-183.79
-207.21
-232.66
-261.27
-293.76
-330.00
-368.59
-406.68
-440.32
-465.30
-478.26
-477.73
-464.40
-440.61
-409.31
-372.99
-333.19
-290.80
-246.77
-202.67
-160.78
-123.46
-92.42
-68.10
-49.75
-35.91
-25.22
-16.90
-10.87
-7.37
-6.39
-7.34
-9.06
-10.29
-10.08
-8.25
-5.34
-2.31
-0.16
0.52
-0.26
-2.00
-3.87
-5.16
-5.52
-5.09
-4.43
-4.21
-4.92
-6.63
-9.02
-11.57
-13.82
-15.55
-16.85
-17.84
-18.61
-19.04
-18.98
-18.44
-17.57
-16.54
-15.27
-13.27
-9.86
-4.67
1.99
9.02
15.04
19.10
21.21
22.37
23.89
26.64
30.51
34.58
37.84
39.88
41.20
42.80
45.57
49.60
54.12
57.74
59.02
56.64
49.47
36.44
16.72
-9.74
-41.24
-73.85
-101.77
-118.84
-120.74
-106.71
-80.18
-47.68
-16.66
6.75
19.31
20.96
14.03
2.09
-11.25
-23.15
-31.84
-36.77
-38.45
-38.08
-37.03
-36.34
-36.36
-36.82
-37.15
-36.68
-34.97
-31.83
-27.41
-22.12
-16.69
-11.98
-8.80
-7.65
-8.52
-10.94
-14.24
-17.74
-20.94
-23.56
-25.42
-26.40
-26.37
-25.22
-22.93
-19.56
-15.16
-9.86
-3.80
2.73
9.28
15.27
20.20
23.78
26.08
27.47
28.47
29.50
30.73
32.04
33.20
33.96
34.25
34.14
33.78
33.31
32.68
31.74
30.28
28.11
25.20
21.69
17.83
13.86
9.91
5.96
1.88
-2.39
-6.76
-10.84
-14.10
-16.05
-16.36
-14.99
-12.19
-8.36
-3.94
0.69
5.28
9.67
13.78
17.56
20.98
23.99
26.50
28.45
29.79
30.51
30.64
30.18
29.14
27.57
25.55
23.27
20.89
18.52
16.15
13.69
10.97
7.95
4.72
1.48
-1.58
-4.41
-7.12
-9.90
-12.92
-16.14
-19.34
-22.09
-23.93
-24.46
-23.38
-20.58
-16.12
-10.26
-3.40
3.97
11.42
18.62
25.40
31.67
37.30
42.07
45.75
48.19
49.45
49.79
49.59
49.14
48.60
47.94
47.02
45.72
43.92
41.63
38.91
35.90
32.78
29.75
26.97
24.51
22.36
20.34
18.23
15.75
12.61
8.71
4.27
-0.07
-3.35
-4.52
-2.93
1.44
7.88
15.22
22.21
27.89
31.70
33.48
33.30
31.34
27.96
23.67
19.11
14.90
11.43
8.81
6.92
5.54
4.51
3.80
3.44
3.43
3.73
4.26
4.94
5.79
6.86
8.13
9.50
10.74
11.55
11.68
10.96
9.40
7.14
4.46
1.70
-0.80
-2.75
-3.92
-4.10
-3.15
-0.99
2.29
6.42
10.96
15.36
19.10
21.77
23.19
23.30
22.21
20.21
17.80
15.65
14.45
14.63
16.16
18.46
20.55
21.43
20.43
17.46
12.94
7.68
2.55
-1.73
-4.73
-6.42
-7.12
-7.34
-7.68
-8.52
-9.98
-11.75
-13.28
-13.94
-13.26
-11.06
-7.53
-3.02
2.02
7.22
12.30
17.04
21.24
24.70
27.27
28.92
29.72
29.75
29.08
27.67
25.55
22.86
20.02
17.55
15.94
15.42
15.88
17.02
18.47
20.05
21.68
23.36
24.98
26.29
26.95
26.57
24.81
21.41
16.16
9.13
0.72
-8.26
-16.62
-23.15
-26.93
-27.69
-25.78
-22.03
-17.34
-12.37
-7.38
-2.31
2.96
8.45
13.85
18.63
22.08
23.44
22.06
17.55
10.03
0.27
-10.32
-19.95
-26.99
-30.57
-30.84
-28.85
-26.02
-23.56
-21.99
-21.17
-20.56
-19.66
-18.32
-16.78
-15.53
-15.09
-15.78
-17.65
-20.43
-23.56
-26.32
-27.92
-27.75
-25.44
-21.01
-14.88
-7.83
-0.84
5.19
9.68
12.62
14.59
16.53
19.38
23.71
29.44
35.91
42.19
47.40
51.05
53.03
53.48
52.61
50.59
47.54
43.67
39.28
34.73
30.35
26.34
22.76
19.61
16.96
14.89
13.50
12.74
12.43
12.28
12.01
11.48
10.74
10.04
9.71
10.17
11.77
14.75
19.06
24.37
30.11
35.73
40.80
45.21
49.07
52.53
55.60
58.10
59.78
60.49
60.34
59.59
58.52
57.23
55.53
53.18
50.08
46.51
43.06
40.40
38.95
38.63
38.88
38.85
37.74
35.05
30.60
24.62
17.54
10.02
2.76
-3.57
-8.52
-12.00
-14.25
-15.78
-16.99
-18.05
-18.84
-19.05
-18.48
-17.22
-15.71
-14.64
-14.73
-16.41
-19.67
-23.97
-28.38
-31.96
-34.06
-34.65
-34.23
-33.73
-33.93
-35.32
-37.86
-41.14
-44.58
-47.59
-49.64
-50.20
-48.74
-44.93
-38.87
-31.21
-23.05
-15.54
-9.35
-4.37
0.39
6.37
14.98
27.07
42.72
61.33
81.73
102.50
122.05
138.72
150.89
157.21
156.75
149.10
134.36
112.93
85.45
52.62
15.49
-24.23
-63.75
-99.28
-126.65
-142.49
-145.48
-137.14
-121.73
-105.18
-93.50
-90.99
-99.02
-115.74
-136.69
-156.30
-169.62
-173.79
-168.58
-156.07
-139.53
-122.13
-106.08
-92.40
-81.30
-72.65
-66.18
-61.33
-57.13
-52.36
-46.03
-38.07
-29.52
-22.20
-17.90
-17.43
-20.26
-24.71
-28.75
-30.84
-30.46
-28.11
-24.86
-21.74
-19.39
-17.98
-17.42
-17.60
-18.49
-20.07
-22.25
-24.77
-27.27
-29.43
-31.07
-32.09
-32.41
-31.73
-29.59
-25.45
-19.03
-10.52
-0.63
9.54
18.86
26.58
32.48
36.83
40.15
42.88
45.20
46.98
47.94
47.86
46.68
44.55
41.66
38.26
34.45
30.26
25.64
20.54
15.08
9.55
4.42
0.26
-2.43
-3.45
-2.97
-1.46
0.50
2.46
4.24
5.80
7.14
8.07
8.30
7.52
5.68
3.07
0.21
-2.34
-4.20
-5.31
-5.83
-6.12
-6.43
-6.83
-7.19
-7.25
-6.73
-5.51
-3.62
-1.30
1.12
3.34
5.16
6.53
7.47
7.99
8.08
7.66
6.79
5.57
4.22
2.93
1.78
0.68
-0.53
-2.02
-3.86
-6.00
-8.26
-10.29
-11.61
-11.60
-9.67
-5.51
0.71
8.24
16.00
22.91
28.24
31.78
33.65
34.09
33.19
30.87
27.08
22.00
16.19
10.37
5.17
0.93
-2.39
-5.05
-7.28
-9.22
-10.75
-11.69
-11.85
-11.11
-9.42
-6.76
-3.29
0.65
4.46
7.47
9.18
9.44
8.50
6.87
5.08
3.40
1.75
-0.19
-2.62
-5.56
-8.88
-12.50
-16.34
-20.24
-23.86
-26.74
-28.46
-28.64
-27.19
-24.52
-21.53
-19.12
-17.84
-17.69
-18.28
-19.03
-19.15
-17.90
-15.02
-10.90
-6.27
-1.69
2.74
7.38
13.11
21.34
33.72
51.42
74.48
101.79
131.18
159.56
183.15
196.48
194.58
177.59
152.06
127.03
108.91
99.72
97.86
99.87
100.80
98.97
94.76
89.42
84.05
78.92
73.62
66.82
55.80
40.86
20.81
-5.17
-36.52
-70.61
-102.93
-127.21
-137.27
-129.29
-103.66
-65.90
-25.44
6.66
20.87
11.75
-19.02
-62.95
-107.73
-141.79
-158.54
-157.76
-144.87
-128.44
-118.15
-119.95
-134.39
-157.42
-182.73
-204.08
-216.20
-215.37
-200.17
-173.73
-140.72
-106.06
-74.55
-50.87
-39.19
-41.06
-54.59
-75.45
-101.15
-128.72
-154.68
-175.57
-189.15
-194.64
-191.66
-179.86
-142.52
-77.01
2.91
75.13
124.43
148.42
153.39
147.64
139.27
132.35
125.21
116.06
105.42
96.00
91.77
93.80
100.97
110.88
120.56
125.56
123.82
116.74
108.10
101.77
99.72
102.36
108.95
117.89
126.13
131.48
133.36
132.64
130.51
127.58
124.10
120.00
114.84
107.29
96.30
81.58
63.69
43.82
23.52
4.85
-10.07
-19.66
-23.80
-23.81
-22.23
-22.08
-25.99
-35.19
-48.97
-64.92
-79.94
-91.34
-97.71
-99.13
-96.72
-91.91
-85.76
-78.58
-70.12
-59.87
-47.43
-32.71
-15.97
2.16
20.48
37.09
49.35
54.04
47.82
28.00
-6.07
-51.70
-102.03
-146.88
-175.17
-178.69
-155.38
-110.57
-55.35
-2.57
37.65
60.85
68.43
65.43
57.39
48.12
39.25
31.14
24.17
19.32
17.76
19.97
25.06
30.90
34.90
35.19
31.32
24.28
15.88
7.88
1.31
-3.74
-7.80
-11.49
-15.15
-18.63
-21.51
-23.35
-24.02
-23.76
-23.07
-22.46
-22.24
-22.35
-22.40
-21.83
-20.23
-17.43
-13.61
-9.15
-4.38
0.63
6.07
12.17
18.99
26.22
33.32
39.87
46.00
52.55
60.86
72.28
87.48
105.89
125.48
142.81
153.43
152.64
136.74
104.60
58.98
6.70
-42.87
-80.72
-101.40
-104.78
-95.73
-81.57
-68.84
-61.05
-58.26
-58.47
-59.49
-60.24
-60.68
-61.06
-60.96
-59.18
-54.55
-46.81
-37.20
-28.12
-22.17
-20.91
-24.21
-30.27
-36.48
-40.55
-41.38
-39.30
-35.70
-32.23
-30.03
-29.42
-29.91
-30.61
-30.63
-29.43
-27.01
-23.86
-20.86
-18.91
-18.56
-20.10
-23.26
-27.49
-32.11
-36.44
-39.82
-41.58
-41.15
-38.10
-32.71
-25.68
-18.16
-11.30
-5.98
-2.73
-1.61
-2.36
-4.24
-6.79
-9.06
-9.99
-8.59
-4.36
2.17
9.38
14.91
16.96
13.62
5.34
-5.67
-16.24
-23.53
-26.26
-24.61
-19.71
-11.64
-2.60
6.73
15.41
22.30
26.22
26.57
24.72
23.77
28.95
40.20
57.01
76.57
95.51
110.68
119.82
123.27
123.43
125.58
129.60
137.18
149.21
166.42
187.83
209.32
226.00
217.41
198.59
165.78
122.34
75.58
35.42
9.27
-2.03
-1.97
3.38
9.92
10.91
5.76
-9.98
-34.88
-56.51
-72.70
-86.93
-100.20
-110.03
-116.92
-119.58
-117.91
-112.12
-103.84
-96.59
-91.93
-89.40
-86.72
-83.89
-80.04
-74.94
-68.22
-60.42
-53.76
-49.35
-46.99
-45.46
-44.44
-43.03
-40.66
-36.77
-31.55
-26.40
-22.19
-19.09
-16.93
-15.84
-15.78
-16.77
-18.51
-20.62
-22.87
-24.52
-24.61
-22.55
-18.33
-12.46
-5.76
0.99
7.15
12.13
15.62
17.58
18.13
17.63
16.58
15.55
14.94
14.83
15.07
15.33
15.30
14.82
13.83
12.43
10.74
8.94
7.22
5.72
4.52
3.51
2.49
1.22
-0.53
-2.80
-5.45
-8.09
-10.18
-11.11
-10.39
-7.86
-3.72
1.45
6.87
11.79
15.73
18.48
20.16
21.01
21.32
21.27
20.93
20.27
19.29
18.09
16.89
16.03
15.76
16.07
16.69
17.13
16.98
16.04
14.42
12.48
10.59
8.97
7.57
6.15
4.37
1.96
-1.15
-4.74
-8.36
-11.39
-13.17
-13.25
-11.49
-8.06
-3.40
1.90
7.28
12.21
16.29
19.26
21.02
21.63
21.33
20.37
19.01
17.44
15.76
14.03
12.35
10.79
9.40
8.23
7.36
6.86
6.78
7.14
7.73
8.22
8.18
7.25
5.27
2.32
-1.30
-5.09
-8.52
-11.05
-12.20
-11.73
-9.60
-6.08
-1.66
3.08
7.59
11.44
14.38
16.34
17.37
17.65
17.42
16.91
16.28
15.65
15.01
14.33
13.63
12.86
11.99
10.97
9.77
8.41
7.01
5.69
4.56
3.61
2.69
1.56
-0.03
-2.22
-5.01
-8.16
-11.26
-13.82
-15.31
-15.34
-13.74
-10.66
-6.51
-1.87
2.65
6.55
9.48
11.32
12.09
11.94
11.10
9.83
8.36
6.87
5.46
4.11
2.76
1.28
-0.36
-2.10
-3.80
-5.27
-6.33
-6.98
-7.33
-7.64
-8.22
-9.25
-10.78
-12.76
-15.05
-17.50
-19.91
-22.09
-23.76
-24.63
-24.44
-23.17
-21.00
-18.36
-15.78
-13.73
-12.48
-12.09
-12.50
-13.57
-15.28
-17.55
-20.29
-23.18
-25.77
-27.47
-27.87
-26.83
-24.50
-21.26
-17.41
-13.07
-8.14
-2.50
3.75
10.18
15.97
20.16
22.00
21.15
17.87
13.03
7.87
3.74
1.86
3.05
7.64
15.42
25.75
37.71
50.33
62.77
74.46
85.23
95.18
104.53
113.33
121.24
127.53
131.24
131.54
128.04
120.94
110.98
99.14
86.41
73.57
61.11
49.29
38.28
28.11
18.80
10.24
2.27
-5.28
-12.51
-19.39
-25.69
-31.01
-34.94
-37.14
-37.53
-36.34
-34.02
-31.14
-28.20
-25.51
-23.22
-21.34
-19.88
-18.92
-18.58
-18.95
-20.00
-21.49
-23.03
-24.25
-24.85
-24.74
-24.06
-23.05
-21.99
-21.07
-20.37
-19.80
-19.21
-18.43
-17.33
-15.98
-14.56
-13.36
-12.65
-12.58
-13.16
-14.23
-15.54
-16.83
-17.86
-18.47
-18.63
-18.41
-18.00
-17.57
-17.24
-17.05
-16.94
-16.84
-16.70
-16.53
-16.28
-15.91
-15.29
-14.35
-13.09
-11.66
-10.31
-9.29
-8.70
-8.46
-8.34
-8.13
-7.71
-7.19
-6.79
-6.75
-7.20
-8.09
-9.29
-10.61
-11.91
-13.08
-14.01
-14.58
-14.63
-14.07
-12.94
-11.46
-9.89
-8.50
-7.40
-6.57
-5.94
-5.49
-5.27
-5.40
-5.92
-6.79
-7.82
-8.77
-9.45
-9.78
-9.85
-9.80
-9.78
-9.84
-9.96
-10.04
-9.96
-9.66
-9.16
-8.54
-7.97
-7.66
-7.74
-8.21
-8.95
-9.66
-9.99
-9.69
-8.65
-6.96
-4.88
-2.72
-0.76
0.82
1.95
2.63
2.88
2.78
2.46
2.03
1.62
1.27
0.97
0.63
0.15
-0.48
-1.21
-1.97
-2.67
-3.27
-3.79
-4.23
-4.61
-4.92
-5.20
-5.52
-5.97
-6.65
-7.53
-8.50
-9.31
-9.74
-9.58
-8.75
-7.29
-5.33
-3.08
-0.80
1.26
2.84
3.79
4.04
3.71
2.99
2.12
1.29
0.58
0.01
-0.49
-0.93
-1.35
-1.68
-1.91
-2.04
-2.12
-2.24
-2.44
-2.73
-3.11
-3.57
-4.14
-4.89
-5.83
-6.90
-7.86
-8.43
-8.32
-7.42
-5.86
-3.95
-2.08
-0.53
0.57
1.27
1.71
2.04
2.31
2.48
2.48
2.25
1.82
1.28
0.73
0.23
-0.23
-0.72
-1.31
-1.98
-2.60
-3.04
-3.26
-3.32
-3.43
-3.82
-4.60
-5.77
-7.21
-8.79
-10.34
-11.68
-12.59
-12.80
-12.10
-10.40
-7.86
-4.84
-1.81
0.81
2.74
3.93
4.51
4.66
4.55
4.23
3.72
2.97
2.03
0.97
-0.05
-0.88
-1.47
-1.87
-2.17
-2.45
-2.69
-2.80
-2.70
-2.37
-1.95
-1.70
-1.90
-2.71
-4.12
-5.90
-7.62
-8.88
-9.36
-8.92
-7.64
-5.75
-3.49
-1.13
1.13
3.12
4.62
5.50
5.69
5.25
4.41
3.44
2.60
2.00
1.60
1.35
1.20
1.20
1.39
1.81
2.39
3.03
3.63
4.13
4.46
4.59
4.38
3.70
2.41
0.50
-1.94
-4.64
-7.22
-9.27
-10.39
-10.37
-9.17
-6.99
-4.19
-1.21
1.55
3.84
5.53
6.62
7.15
7.20
6.84
6.17
5.32
4.40
3.55
2.89
2.47
2.25
2.13
1.93
1.50
0.77
-0.21
-1.27
-2.24
-2.97
-3.42
-3.69
-3.99
-4.58
-5.58
-7.00
-8.70
-10.42
-11.84
-12.61
-12.56
-11.78
-10.62
-9.43
-8.44
-7.73
-7.23
-6.79
-6.41
-6.34
-7.08
-9.20
-12.79
-17.50
-22.75
-27.88
-32.16
-35.17
-37.11
-38.88
-41.95
-47.11
-54.64
-64.27
-75.09
-85.37
-93.43
-98.48
-100.97
-102.69
-104.41
-106.30
-108.12
-109.04
-107.15
-100.65
-88.88
-72.90
-55.67
-38.35
-21.24
-3.95
14.82
37.59
66.48
101.76
141.48
181.22
219.20
254.31
286.13
306.66
308.22
289.18
256.60
229.53
210.39
198.00
189.11
178.41
165.47
154.20
150.02
156.24
171.98
189.76
201.79
198.08
172.36
126.24
69.05
12.94
-33.21
-66.17
-90.44
-111.36
-137.65
-175.78
-226.79
-286.71
-349.51
-409.83
-462.57
-505.15
-509.42
-458.54
-359.10
-238.44
-125.44
-36.08
21.28
56.61
77.21
88.29
89.45
79.74
63.46
46.81
35.83
33.91
42.31
58.45
79.11
97.88
109.23
111.22
105.74
97.08
89.48
86.39
88.07
93.30
97.85
97.54
90.17
75.85
56.27
33.56
10.29
-11.96
-31.66
-48.64
-63.08
-74.71
-82.53
-85.10
-81.46
-71.77
-58.26
-44.38
-33.96
-29.42
-30.68
-35.41
-40.24
-42.41
-40.62
-35.25
-27.50
-18.73
-10.01
-2.21
3.86
7.44
8.03
5.72
1.22
-4.29
-9.61
-13.94
-17.09
-19.45
-21.60
-23.94
-26.40
-28.57
-29.89
-30.01
-28.91
-26.78
-23.84
-20.13
-15.51
-9.88
-3.50
2.84
7.92
10.47
9.77
6.07
0.61
-4.79
-8.36
-9.03
-6.72
-2.24
3.13
8.17
12.03
14.28
14.79
13.53
10.57
6.04
0.26
-6.22
-12.74
-18.69
-23.64
-27.44
-30.19
-32.08
-33.29
-33.85
-33.62
-32.41
-30.05
-26.52
-22.05
-17.06
-12.07
-7.56
-3.86
-1.09
0.80
2.04
2.89
3.63
4.40
5.26
6.16
7.02
7.74
8.30
8.63
8.69
8.46
7.98
7.36
6.78
6.39
6.27
6.37
6.55
6.64
6.53
6.19
5.61
4.84
3.85
2.58
1.00
-0.96
-3.28
-5.91
-8.72
-11.44
-13.69
-15.04
-15.12
-13.79
-11.22
-7.82
-4.17
-0.77
2.02
4.05
5.28
5.78
5.57
4.71
3.34
1.65
-0.08
-1.61
-2.77
-3.57
-4.14
-4.67
-5.30
-6.07
-6.92
-7.74
-8.39
-8.80
-8.96
-8.90
-8.65
-8.25
-7.67
-6.92
-6.03
-5.11
-4.42
-4.30
-5.09
-7.01
-9.98
-13.54
-16.90
-19.13
-19.43
-17.39
-13.14
-7.22
-0.45
6.36
12.59
17.91
22.24
25.70
28.47
30.78
32.86
34.90
37.03
39.25
41.51
43.73
45.84
47.83
49.79
51.78
53.81
55.82
57.61
58.93
59.49
59.05
57.46
54.71
50.96
46.51
41.70
36.78
31.84
26.83
21.59
16.08
10.47
5.17
0.72
-2.32
-3.57
-2.92
-0.55
3.12
7.52
12.01
16.03
19.19
21.30
22.34
22.41
21.64
20.15
18.09
15.60
12.94
10.33
7.96
5.80
3.66
1.22
-1.82
-5.52
-9.75
-14.20
-18.58
-22.70
-26.61
-30.42
-34.23
-38.02
-41.67
-45.09
-48.23
-51.18
-54.00
-56.62
-58.67
-59.58
-58.63
-55.25
-49.15
-40.46
-29.74
-17.84
-5.74
5.75
16.08
25.06
32.69
38.99
43.89
47.18
48.74
48.65
47.29
45.25
43.12
41.27
39.79
38.48
37.05
35.27
33.05
30.46
27.68
24.92
22.34
20.02
17.94
15.95
13.88
11.52
8.63
5.05
0.70
-4.30
-9.59
-14.54
-18.43
-20.64
-20.94
-19.58
-17.20
-14.63
-12.58
-11.45
-11.32
-11.96
-13.03
-14.10
-14.88
-15.15
-14.91
-14.31
-13.63
-13.15
-12.99
-13.07
-13.16
-13.02
-12.51
-11.71
-10.79
-9.93
-9.22
-8.58
-7.81
-6.68
-4.98
-2.57
0.54
4.20
8.12
11.84
14.96
17.18
18.53
19.34
20.22
21.74
24.31
27.96
32.38
37.03
41.36
44.90
47.39
48.69
48.77
47.67
45.53
42.53
38.99
35.19
31.39
27.74
24.30
21.07
18.11
15.49
13.28
11.50
10.03
8.69
7.27
5.61
3.72
1.69
-0.29
-2.12
-3.76
-5.32
-7.00
-8.98
-11.39
-14.17
-17.07
-19.70
-21.62
-22.45
-22.02
-20.39
-17.86
-14.92
-12.01
-9.51
-7.62
-6.36
-5.63
-5.30
-5.22
-5.29
-5.39
-5.45
-5.38
-5.13
-4.69
-4.08
-3.41
-2.78
-2.27
-1.97
-1.87
-1.92
-2.05
-2.19
-2.31
-2.50
-2.92
-3.73
-5.12
-7.17
-9.87
-13.12
-16.64
-20.05
-22.80
-24.34
-24.33
-22.77
-20.06
-16.87
-13.87
-11.43
-9.55
-7.90
-6.11
-3.94
-1.42
1.34
4.25
7.40
11.10
15.63
21.13
27.51
34.42
41.48
48.31
54.65
60.35
65.32
69.43
72.57
74.54
75.14
74.19
71.53
67.14
61.09
53.55
44.81
35.21
25.04
14.61
4.24
-5.78
-15.06
-23.27
-30.07
-35.28
-38.82
-40.81
-41.44
-40.99
-39.75
-37.97
-35.89
-33.66
-31.38
-29.06
-26.71
-24.31
-21.90
-19.57
-17.38
-15.39
-13.55
-11.80
-10.10
-8.45
-6.91
-5.59
-4.57
-3.86
-3.37
-2.97
-2.55
-2.05
-1.52
-1.03
-0.72
-0.66
-0.86
-1.25
-1.73
-2.18
-2.52
-2.75
-2.92
-3.13
-3.43
-3.91
-4.62
-5.60
-6.85
-8.28
-9.70
-10.84
-11.41
-11.20
-10.14
-8.33
-6.01
-3.47
-1.03
1.05
2.60
3.53
3.90
3.84
3.56
3.26
3.07
2.98
2.92
2.78
2.49
2.12
1.78
1.62
1.70
1.96
2.22
2.27
1.99
1.41
0.70
0.04
-0.44
-0.76
-1.09
-1.60
-2.38
-3.38
-4.44
-5.41
-6.17
-6.75
-7.22
-7.73
-8.34
-9.09
-9.98
-10.95
-11.89
-12.64
-13.01
-12.80
-11.88
-10.26
-8.09
-5.63
-3.20
-1.01
0.80
2.20
3.19
3.81
4.12
4.24
4.33
4.58
5.07
5.72
6.34
6.67
6.53
5.91
5.00
4.06
3.31
2.88
2.73
2.74
2.73
2.58
2.21
1.64
0.90
0.06
-0.83
-1.70
-2.49
-3.14
-3.64
-4.03
-4.42
-4.93
-5.66
-6.58
-7.57
-8.42
-8.91
-8.90
-8.36
-7.36
-5.99
-4.37
-2.59
-0.72
1.11
2.79
4.15
5.12
5.69
5.92
5.93
5.81
5.63
5.42
5.21
5.00
4.83
4.68
4.53
4.33
4.03
3.64
3.19
2.76
2.40
2.16
2.01
1.90
1.76
1.53
1.15
0.63
-0.01
-0.73
-1.44
-2.10
-2.66
-3.13
-3.53
-3.90
-4.29
-4.70
-5.13
-5.57
-6.05
-6.61
-7.28
-8.00
-8.54
-8.59
-7.84
-6.18
-3.78
-1.04
1.53
3.54
4.83
5.52
5.82
5.94
5.98
5.94
5.82
5.69
5.65
5.78
6.08
6.37
6.47
6.20
5.53
4.62
3.71
3.05
2.75
2.75
2.85
2.84
2.58
2.07
1.43
0.81
0.28
-0.17
-0.63
-1.13
-1.64
-2.04
-2.27
-2.32
-2.36
-2.58
-3.10
-3.93
-4.93
-5.92
-6.85
-7.76
-8.75
-9.92
-11.19
-12.40
-13.37
-13.96
-14.16
-14.07
-13.76
-13.27
-12.52
-11.36
-9.70
-7.53
-4.97
-2.24
0.47
3.01
5.30
7.25
8.79
9.79
10.23
10.16
9.77
9.36
9.17
9.34
9.83
10.47
11.04
11.33
11.24
10.75
10.00
9.22
8.74
8.82
9.55
10.76
12.01
12.78
12.61
11.32
9.07
6.24
3.28
0.52
-1.94
-4.20
-6.45
-8.80
-11.25
-13.68
-15.89
-17.78
-19.35
-20.75
-22.15
-23.67
-25.32
-27.04
-28.71
-30.25
-31.63
-32.76
-33.54
-33.77
-33.25
-31.78
-29.30
-25.86
-21.67
-16.94
-11.89
-6.72
-1.57
3.41
8.10
12.37
16.16
19.40
22.09
24.22
25.77
26.74
27.09
26.84
26.02
24.78
23.28
21.72
20.25
18.99
17.95
17.07
16.21
15.27
14.16
12.90
11.58
10.28
9.05
7.91
6.80
5.73
4.71
3.78
2.93
2.11
1.17
0.00
-1.45
-3.11
-4.80
-6.30
-7.43
-8.13
-8.46
-8.58
-8.76
-9.23
-10.19
-11.63
-13.39
-15.15
-16.58
-17.43
-17.59
-17.09
-16.05
-14.59
-12.82
-10.88
-8.94
-7.16
-5.71
-4.62
-3.81
-3.13
-2.42
-1.57
-0.58
0.53
1.71
2.91
4.10
5.22
6.23
7.07
7.74
8.23
8.54
8.68
8.62
8.38
7.96
7.43
6.89
6.43
6.13
5.99
5.95
5.89
5.72
5.36
4.86
4.32
3.89
3.67
3.65
3.77
3.89
3.87
3.58
2.90
1.77
0.14
-1.95
-4.34
-6.78
-9.02
-10.83
-12.13
-12.93
-13.35
-13.48
-13.43
-13.25
-13.03
-12.85
-12.78
-12.85
-12.98
-13.08
-13.08
-13.04
-13.10
-13.45
-14.23
-15.47
-17.02
-18.65
-20.08
-21.03
-21.28
-20.67
-19.12
-16.66
-13.40
-9.46
-4.91
0.20
5.82
11.77
17.68
23.04
27.34
30.21
31.53
31.57
30.89
30.25
30.44
31.91
34.65
38.03
41.02
42.53
41.81
38.74
33.78
27.72
21.25
14.84
8.62
2.58
-3.17
-8.40
-12.74
-15.90
-17.80
-18.63
-18.73
-18.55
-18.47
-18.74
-19.46
-20.48
-21.33
-21.14
-18.75
-12.93
-2.84
11.57
29.31
48.63
67.43
84.00
97.46
107.82
115.74
122.00
127.19
131.51
134.76
136.53
136.24
133.32
127.45
118.78
108.16
97.09
87.40
80.69
77.93
79.17
83.73
90.49
98.22
105.81
112.37
117.31
120.37
121.64
121.36
119.69
116.43
110.98
102.60
90.77
75.54
57.56
37.91
17.70
-2.18
-21.10
-38.60
-54.29
-67.76
-78.80
-87.50
-94.34
-100.03
-105.28
-110.55
-115.92
-121.16
-125.93
-129.92
-132.92
-134.83
-135.61
-135.31
-134.07
-132.23
-130.22
-128.53
-127.53
-127.37
-128.05
-129.51
-131.68
-134.47
-137.68
-140.94
-143.73
-145.62
-146.45
-146.43
-145.99
-145.54
-145.19
-144.68
-143.41
-140.73
-136.03
-128.91
-119.21
-107.12
-93.28
-78.79
-65.02
-53.14
-43.50
-35.31
-26.81
-15.98
-1.44
16.90
37.70
58.81
78.04
93.82
105.50
113.09
116.89
117.21
114.29
108.47
100.33
90.67
80.41
70.26
60.62
51.50
42.67
33.81
24.63
15.04
5.04
-5.27
-15.69
-26.02
-36.06
-45.65
-54.66
-62.98
-70.46
-76.83
-81.76
-84.89
-86.07
-85.43
-83.35
-80.30
-76.59
-72.23
-66.99
-60.54
-52.76
-43.87
-34.35
-24.79
-15.72
-7.44
-0.06
6.39
11.94
16.59
20.40
23.41
25.73
27.46
28.64
29.32
29.51
29.27
28.63
27.65
26.32
24.63
22.63
20.40
18.16
16.12
14.44
13.15
12.09
11.02
9.74
8.17
6.41
4.68
3.21
2.14
1.49
1.13
0.86
0.45
-0.30
-1.59
-3.51
-6.05
-9.06
-12.29
-15.45
-18.30
-20.73
-22.73
-24.29
-25.30
-25.54
-24.75
-22.77
-19.66
-15.74
-11.47
-7.30
-3.51
-0.18
2.77
5.41
7.77
9.79
11.38
12.55
13.38
14.04
14.68
15.41
16.22
17.05
17.81
18.41
18.80
18.93
18.80
18.44
17.91
17.36
16.93
16.69
16.58
16.47
16.15
15.45
14.32
12.81
11.11
9.51
8.39
8.07
8.77
10.47
12.90
15.61
18.10
20.00
21.18
21.70
21.75
21.47
20.88
19.89
18.36
16.21
13.45
10.27
6.92
3.69
0.79
-1.73
-3.92
-5.88
-7.62
-9.10
-10.21
-10.94
-11.42
-11.93
-12.76
-14.11
-15.95
-18.10
-20.29
-22.25
-23.79
-24.83
-25.30
-25.21
-24.60
-23.55
-22.17
-20.57
-18.77
-16.74
-14.33
-11.40
-7.86
-3.72
0.93
5.93
11.12
16.38
21.58
26.64
31.38
35.59
39.00
41.34
42.45
42.29
40.99
38.78
35.91
32.62
29.07
25.39
21.67
18.05
14.67
11.68
9.16
7.09
5.37
3.86
2.52
1.38
0.62
0.41
0.83
1.81
3.16
4.57
5.82
6.74
7.25
7.43
7.39
7.29
7.29
7.55
8.20
9.31
10.89
12.82
14.91
16.85
18.34
19.14
19.21
18.66
17.74
16.69
15.66
14.63
13.48
12.07
10.30
8.09
5.39
2.15
-1.62
-5.75
-9.83
-13.29
-15.56
-16.27
-15.38
-13.12
-9.85
-5.86
-1.30
3.78
9.32
15.11
20.81
26.02
30.46
33.98
36.65
38.59
39.96
40.91
41.57
42.13
42.76
43.62
44.78
46.13
47.39
48.16
48.04
46.77
44.38
41.09
37.30
33.31
29.27
25.13
20.75
16.09
11.33
6.78
2.81
-0.34
-2.67
-4.42
-5.96
-7.66
-9.77
-12.37
-15.33
-18.39
-21.18
-23.38
-24.80
-25.41
-25.37
-24.97
-24.55
-24.49
-25.09
-26.56
-28.94
-32.07
-35.60
-39.05
-41.93
-43.85
-44.64
-44.38
-43.41
-42.19
-41.14
-40.48
-40.14
-39.74
-38.77
-36.76
-33.44
-28.89
-23.46
-17.70
-12.14
-7.23
-3.20
-0.11
2.14
3.75
4.95
5.97
6.94
7.89
8.71
9.19
9.07
8.15
6.40
4.00
1.27
-1.40
-3.74
-5.63
-7.11
-8.29
-9.25
-10.03
-10.58
-10.85
-10.82
-10.51
-9.98
-9.28
-8.47
-7.61
-6.75
-5.97
-5.36
-4.97
-4.83
-4.93
-5.20
-5.57
-5.97
-6.29
-6.40
-6.12
-5.23
-3.62
-1.27
1.63
4.73
7.64
10.01
11.66
12.56
12.87
12.79
12.54
12.29
12.20
12.37
12.87
13.68
14.72
15.81
16.76
17.43
17.73
17.64
17.19
16.37
15.18
13.68
11.96
10.20
8.51
6.90
5.22
3.20
0.64
-2.42
-5.73
-8.91
-11.63
-13.80
-15.58
-17.26
-19.16
-21.41
-23.89
-26.30
-28.19
-29.05
-28.49
-26.26
-22.37
-17.08
-10.89
-4.36
1.94
7.59
12.36
16.15
19.00
20.97
22.18
22.74
22.77
22.42
21.83
21.11
20.31
19.42
18.34
16.96
15.23
13.22
11.07
8.96
7.10
5.59
4.46
3.59
2.78
1.83
0.60
-0.90
-2.53
-4.10
-5.46
-6.57
-7.56
-8.57
-9.73
-11.06
-12.44
-13.73
-14.78
-15.49
-15.74
-15.41
-14.47
-12.98
-11.11
-9.11
-7.17
-5.39
-3.71
-2.08
-0.44
1.15
2.63
3.97
5.26
6.62
8.11
9.67
11.11
12.21
12.82
12.93
12.68
12.22
11.68
11.10
10.49
9.81
9.06
8.22
7.27
6.20
4.99
3.67
2.35
1.13
0.08
-0.77
-1.48
-2.12
-2.73
-3.29
-3.74
-4.03
-4.16
-4.18
-4.19
-4.26
-4.42
-4.60
-4.69
-4.58
-4.18
-3.46
-2.44
-1.20
0.19
1.61
2.99
4.26
5.35
6.20
6.74
6.95
6.88
6.59
6.18
5.73
5.21
4.54
3.61
2.40
1.01
-0.32
-1.34
-1.86
-1.94
-1.80
-1.77
-2.10
-2.91
-4.13
-5.53
-6.87
-7.94
-8.59
-8.78
-8.51
-7.82
-6.83
-5.64
-4.31
-2.82
-1.03
1.23
4.01
7.15
10.19
12.54
13.64
13.25
11.52
8.94
6.13
3.61
1.62
0.16
-0.94
-1.88
-2.72
-3.46
-4.03
-4.38
-4.50
-4.39
-4.06
-3.52
-2.77
-1.88
-0.98
-0.21
0.30
0.48
0.30
-0.22
-1.01
-2.00
-3.06
-4.05
-4.85
-5.44
-5.87
-6.30
-6.89
-7.71
-8.73
-9.82
-10.83
-11.65
-12.21
-12.51
-12.58
-12.47
-12.24
-12.04
-11.98
-12.18
-12.67
-13.41
-14.32
-15.26
-16.08
-16.65
-16.82
-16.46
-15.48
-13.88
-11.79
-9.40
-6.97
-4.72
-2.83
-1.33
-0.21
0.60
1.16
1.47
1.48
1.09
0.24
-1.06
-2.74
-4.64
-6.65
-8.62
-10.44
-12.00
-13.18
-13.90
-14.08
-13.63
-12.48
-10.50
-7.55
-3.55
1.46
7.31
13.73
20.38
26.94
33.15
38.77
43.65
47.60
50.48
52.10
52.34
51.07
48.20
43.75
37.85
30.85
23.34
16.08
9.94
5.60
3.44
3.40
5.02
7.59
10.40
12.88
14.70
15.77
16.15
16.00
15.51
14.90
14.36
14.10
14.26
14.93
16.16
17.88
19.94
22.09
24.03
25.44
26.05
25.67
24.17
21.53
17.76
12.99
7.49
1.62
-4.21
-9.62
-14.32
-18.17
-21.15
-23.29
-24.65
-25.27
-25.24
-24.71
-23.86
-22.90
-21.98
-21.13
-20.29
-19.34
-18.17
-16.72
-15.04
-13.26
-11.56
-10.01
-8.60
-7.14
-5.35
-2.98
0.06
3.63
7.39
10.91
13.88
16.18
17.96
19.57
21.40
23.74
26.75
30.41
34.54
38.87
43.06
46.79
49.88
52.34
54.35
56.23
58.11
59.81
60.78
60.17
57.25
51.68
43.70
34.02
23.54
12.91
2.38
-8.17
-19.05
-30.39
-41.97
-53.31
-63.73
-72.66
-79.72
-84.78
-87.95
-89.57
-90.14
-90.34
-90.87
-92.27
-94.80
-98.35
-102.40
-106.23
-109.09
-110.36
-109.68
-106.91
-102.05
-95.23
-86.61
-76.44
-65.06
-52.93
-40.61
-28.63
-17.43
-7.23
1.95
10.21
17.67
24.40
30.39
35.60
40.05
43.80
46.95
49.61
51.88
53.86
55.68
57.51
59.44
61.43
63.16
64.13
63.70
61.33
56.75
50.05
41.64
32.20
22.44
12.98
4.19
-3.82
-11.09
-17.62
-23.18
-27.24
-29.13
-28.27
-24.42
-17.84
-9.28
0.24
9.74
18.43
25.92
32.15
37.26
41.48
44.91
47.48
49.00
49.22
47.96
45.23
41.12
35.77
29.34
21.93
13.76
5.11
-3.60
-12.01
-19.89
-27.22
-34.15
-40.89
-47.62
-54.43
-61.31
-68.14
-74.67
-80.42
-84.84
-87.41
-87.81
-86.03
-82.31
-76.88
-69.85
-61.09
-50.39
-37.67
-23.12
-7.19
9.38
25.85
41.45
55.51
67.48
77.05
84.23
89.41
93.23
96.34
99.10
101.49
103.11
103.44
102.12
99.15
94.90
89.94
84.82
79.93
75.37
71.07
66.97
63.19
60.02
57.85
56.90
56.91
57.11
56.36
53.59
48.27
40.75
32.13
23.83
17.00
11.97
8.21
4.71
0.57
-4.45
-9.93
-15.11
-19.49
-23.20
-27.00
-31.78
-37.97
-45.19
-52.35
-58.17
-61.77
-63.12
-62.87
-62.03
-61.41
-61.31
-61.58
-61.92
-62.15
-62.35
-62.70
-63.21
-63.56
-63.17
-61.40
-57.88
-52.70
-46.40
-39.79
-33.69
-28.75
-25.32
-23.48
-23.04
-23.67
-24.94
-26.38
-27.60
-28.30
-28.34
-27.76
-26.82
-25.90
-25.43
-25.71
-26.74
-28.25
-29.71
-30.67
-30.95
-30.78
-30.65
-31.05
-32.19
-33.90
-35.70
-37.08
-37.69
-37.48
-36.59
-35.22
-33.56
-31.77
-29.98
-28.39
-27.19
-26.44
-26.04
-25.72
-25.20
-24.36
-23.25
-22.08
-21.08
-20.29
-19.64
-18.92
-17.97
-16.73
-15.30
-13.82
-12.43
-11.18
-9.99
-8.81
-7.61
-6.40
-5.26
-4.18
-3.11
-1.91
-0.49
1.19
3.03
4.92
6.81
8.74
10.88
13.38
16.34
19.74
23.50
27.54
31.79
36.17
40.54
44.67
48.32
51.34
53.74
55.69
57.41
59.03
60.53
61.71
62.36
62.32
61.57
60.22
58.48
56.56
54.67
52.95
51.50
50.30
49.17
47.73
45.45
41.76
36.21
28.68
19.38
8.82
-2.39
-13.62
-24.37
-34.09
-42.26
-48.28
-51.73
-52.52
-51.06
-48.16
-44.79
-41.73
-39.29
-37.33
-35.41
-33.14
-30.34
-27.17
-23.91
-20.86
-18.12
-15.69
-13.40
-11.13
-8.85
-6.61
-4.50
-2.59
-0.89
0.70
2.29
3.95
5.67
7.35
8.82
9.99
10.81
11.36
11.77
12.17
12.63
13.12
13.55
13.84
13.93
13.79
13.44
12.94
12.33
11.66
10.96
10.27
9.61
9.00
8.39
7.73
6.91
5.87
4.57
3.09
1.51
-0.02
-1.45
-2.75
-4.00
-5.28
-6.64
-8.10
-9.61
-11.15
-12.70
-14.24
-15.76
-17.12
-18.12
-18.50
-17.98
-16.49
-14.09
-11.01
-7.51
-3.78
0.09
4.09
8.14
12.08
15.64
18.60
20.86
22.53
23.84
25.04
26.26
27.42
28.39
28.98
29.06
28.59
27.57
26.02
23.97
21.46
18.61
15.56
12.53
9.71
7.31
5.52
4.42
4.09
4.48
5.52
7.09
9.09
11.41
13.92
16.46
18.81
20.79
22.26
23.26
23.95
24.54
25.14
25.76
26.29
26.57
26.54
26.23
25.79
25.34
24.95
24.64
24.44
24.41
24.66
25.27
26.14
27.00
27.40
26.92
25.31
22.63
19.21
15.57
12.25
9.69
8.25
8.07
9.24
11.70
15.26
19.59
24.23
28.59
31.98
33.78
33.52
31.08
26.62
20.50
13.06
4.43
-5.42
-16.49
-28.46
-40.56
-51.77
-61.11
-68.09
-72.84
-76.01
-78.41
-80.58
-82.64
-84.27
-84.98
-84.31
-82.02
-78.11
-72.73
-65.99
-57.89
-48.26
-36.95
-23.97
-9.71
5.12
19.64
33.09
45.07
55.50
64.45
71.89
77.61
81.40
83.31
83.88
84.07
84.95
87.27
91.18
96.21
101.63
106.75
111.20
114.87
117.87
120.34
122.44
124.46
126.86
130.21
134.96
141.16
148.29
155.36
161.17
164.76
165.60
163.69
159.24
152.43
143.19
131.33
116.87
100.30
82.62
65.12
48.84
34.16
20.59
7.17
-7.00
-22.07
-37.25
-51.11
-62.20
-69.82
-74.35
-77.16
-79.96
-84.21
-90.56
-98.70
-107.63
-115.97
-122.44
-126.15
-126.79
-124.65
-120.53
-115.46
-110.46
-106.24
-103.21
-101.47
-100.94
-101.39
-102.52
-103.97
-105.43
-106.84
-108.47
-110.91
-114.83
-120.63
-128.10
-136.47
-144.66
-151.79
-157.55
-162.34
-167.08
-172.88
-180.65
-190.72
-202.57
-214.76
-225.29
-232.31
-234.94
-233.81
-230.82
-228.21
-227.23
-227.11
-225.13
-217.81
-202.66
-179.60
-151.17
-121.47
-94.38
-72.07
-54.58
-40.39
-27.76
-15.74
-4.58
4.78
11.62
16.17
19.74
24.13
30.87
40.45
52.25
64.92
77.08
87.89
97.20
105.29
112.42
118.62
123.80
128.06
131.97
136.50
142.76
151.47
162.62
175.49
188.90
201.64
212.82
222.04
229.38
235.29
240.48
245.83
252.31
260.68
271.30
283.70
296.37
306.77
311.72
308.18
294.12
269.19
234.81
193.73
149.17
104.07
60.60
20.29
-15.74
-46.51
-71.22
-89.59
-102.06
-109.87
-114.79
-118.51
-122.17
-126.10
-130.00
-133.30
-135.61
-136.97
-137.79
-138.60
-139.71
-141.06
-142.32
-143.09
-143.10
-142.39
-141.19
-139.82
-138.51
-137.31
-136.08
-134.55
-132.47
-129.64
-126.05
-121.80
-117.12
-112.30
-107.56
-103.01
-98.67
-94.47
-90.32
-86.14
-81.91
-77.66
-73.45
-69.35
-65.38
-61.46
-57.40
-52.90
-47.70
-41.59
-34.54
-26.68
-18.24
-9.57
-1.03
7.02
14.22
20.26
24.91
28.06
29.77
30.29
30.02
29.40
28.84
28.59
28.76
29.33
30.20
31.23
32.31
33.34
34.25
35.02
35.66
36.19
36.61
36.89
36.97
36.82
36.46
35.91
35.27
34.56
33.81
33.01
32.17
31.31
30.49
29.71
28.96
28.18
27.29
26.31
25.26
24.23
23.32
22.56
21.96
21.47
21.07
20.74
20.47
20.21
19.91
19.49
18.93
18.24
17.49
16.75
16.06
15.44
14.87
14.39
14.07
14.01
14.24
14.74
15.39
16.09
16.73
17.29
17.73
18.02
18.12
18.01
17.64
17.06
16.32
15.48
14.62
13.81
13.06
12.34
11.59
10.73
9.69
8.52
7.31
6.21
5.30
4.58
3.94
3.25
2.41
1.43
0.41
-0.54
-1.33
-1.98
-2.53
-3.01
-3.38
-3.53
-3.37
-2.85
-2.05
-1.12
-0.20
0.58
1.21
1.69
2.00
2.05
1.74
1.04
0.06
-1.00
-1.87
-2.44
-2.77
-3.07
-3.61
-4.56
-5.86
-7.32
-8.63
-9.54
-9.95
-9.88
-9.48
-8.89
-8.22
-7.56
-6.94
-6.37
-5.83
-5.26
-4.59
-3.70
-2.54
-1.10
0.58
2.37
4.13
5.76
7.23
8.57
9.91
11.31
12.83
14.42
15.98
17.38
18.54
19.44
20.14
20.71
21.23
21.73
22.22
22.71
23.21
23.72
24.20
24.54
24.55
24.01
22.77
20.79
18.20
15.21
12.03
8.79
5.54
2.25
-1.10
-4.48
-7.77
-10.80
-13.39
-15.38
-16.68
-17.28
-17.32
-17.02
-16.59
-16.16
-15.74
-15.19
-14.33
-13.05
-11.41
-9.54
-7.63
-5.78
-3.97
-2.12
-0.16
1.88
3.91
5.75
7.32
8.64
9.78
10.90
12.02
13.09
13.93
14.39
14.43
14.20
13.98
14.14
14.92
16.35
18.22
20.15
21.77
22.80
23.11
22.68
21.52
19.64
17.09
14.02
10.71
7.53
4.84
2.86
1.57
0.78
0.22
-0.32
-0.93
-1.60
-2.31
-3.05
-3.85
-4.77
-5.81
-6.97
-8.24
-9.65
-11.22
-12.94
-14.71
-16.32
-17.56
-18.33
-18.63
-18.56
-18.30
-17.98
-17.71
-17.61
-17.74
-18.11
-18.60
-18.95
-18.81
-17.91
-16.19
-13.79
-11.05
-8.31
-5.80
-3.52
-1.22
1.45
4.83
9.03
13.90
19.03
23.87
27.99
31.22
33.69
35.76
37.89
40.43
43.60
47.44
51.92
56.92
62.29
67.78
72.95
77.12
79.49
79.17
75.40
67.63
55.55
39.18
18.87
-4.59
-29.82
-54.81
-77.21
-94.76
-105.93
-110.44
-109.23
-104.15
-97.28
-90.26
-83.95
-78.46
-73.43
-68.38
-62.97
-57.02
-50.53
-43.56
-36.19
-28.59
-21.03
-13.87
-7.48
-2.13
2.14
5.52
8.38
11.09
13.91
16.84
19.67
22.09
23.87
24.94
25.45
25.65
25.81
26.05
26.39
26.73
26.94
26.94
26.74
26.41
26.07
25.82
25.66
25.59
25.56
25.54
25.50
25.43
25.29
24.97
24.38
23.43
22.04
20.25
18.12
15.78
13.40
11.15
9.17
7.57
6.38
5.58
5.12
5.00
5.28
5.98
7.08
8.40
9.67
10.55
10.84
10.53
9.82
9.00
8.25
7.60
6.92
6.00
4.72
3.09
1.22
-0.70
-2.56
-4.28
-5.81
-7.14
-8.26
-9.21
-10.14
-11.31
-12.96
-15.29
-18.32
-21.88
-25.73
-29.58
-33.26
-36.67
-39.79
-42.58
-44.95
-46.76
-47.79
-47.86
-46.85
-44.79
-41.82
-38.18
-34.11
-29.76
-25.20
-20.43
-15.47
-10.46
-5.58
-1.09
2.78
5.92
8.36
10.19
11.60
12.76
13.86
15.00
16.15
17.17
17.84
18.00
17.64
16.95
16.21
15.68
15.46
15.54
15.91
16.63
17.82
19.51
21.44
23.06
23.64
22.57
19.58
14.86
8.89
2.19
-4.86
-12.04
-19.11
-25.71
-31.21
-34.95
-36.50
-35.82
-33.42
-30.16
-26.94
-24.43
-22.91
-22.23
-21.93
-21.45
-20.27
-18.05
-14.63
-10.12
-4.77
1.05
6.95
12.60
17.77
22.35
26.32
29.71
32.53
34.76
36.40
37.41
37.75
37.31
35.97
33.57
30.04
25.37
19.67
13.07
5.69
-2.40
-10.99
-19.69
-27.81
-34.52
-39.10
-41.20
-41.05
-39.27
-36.68
-33.90
-31.23
-28.66
-26.00
-23.09
-19.83
-16.25
-12.39
-8.28
-3.91
0.70
5.59
10.76
16.20
21.87
27.62
33.27
38.63
43.53
47.88
51.55
54.30
55.80
55.65
53.62
49.79
44.63
38.83
33.11
27.94
23.47
19.59
16.15
13.14
10.70
9.03
8.19
8.00
8.02
7.73
6.75
4.97
2.65
0.25
-1.74
-3.04
-3.65
-3.84
-4.00
-4.41
-5.23
-6.39
-7.79
-9.34
-11.06
-12.97
-15.09
-17.34
-19.57
-21.66
-23.57
-25.38
-27.18
-28.98
-30.75
-32.36
-33.74
-34.86
-35.79
-36.61
-37.39
-38.11
-38.67
-38.89
-38.44
-36.92
-33.95
-29.34
-23.25
-16.20
-8.98
-2.38
3.07
7.19
10.12
12.21
13.78
15.03
16.09
17.00
17.75
18.32
18.66
18.71
18.45
17.96
17.42
17.01
16.88
17.05
17.44
17.91
18.27
18.34
17.96
17.02
15.47
13.38
10.90
8.30
5.87
3.83
2.29
1.15
0.22
-0.78
-2.08
-3.80
-5.85
-8.01
-9.96
-11.43
-12.28
-12.56
-12.46
-12.22
-12.03
-11.96
-11.97
-11.94
-11.72
-11.19
-10.26
-8.90
-7.15
-5.10
-2.90
-0.70
1.37
3.26
4.94
6.38
7.56
8.44
9.06
9.46
9.76
10.05
10.37
10.71
11.00
11.17
11.13
10.86
10.36
9.68
8.95
8.27
7.76
7.44
7.23
6.99
6.57
5.88
4.90
3.72
2.41
1.04
-0.34
-1.64
-2.75
-3.52
-3.85
-3.66
-3.00
-1.98
-0.71
0.70
2.23
3.84
5.48
7.07
8.52
9.71
10.62
11.26
11.70
12.03
12.38
12.82
13.33
13.80
14.05
13.89
13.24
12.19
10.92
9.65
8.44
7.22
5.77
3.89
1.53
-1.17
-3.93
-6.44
-8.53
-10.19
-11.55
-12.74
-13.86
-14.87
-15.68
-16.18
-16.29
-16.08
-15.65
-15.10
-14.52
-13.93
-13.36
-12.85
-12.46
-12.22
-12.11
-12.00
-11.72
-11.16
-10.33
-9.38
-8.51
-7.87
-7.51
-7.37
-7.35
-7.41
-7.53
-7.74
-8.04
-8.38
-8.70
-8.97
-9.24
-9.61
-10.18
-10.98
-11.96
-13.02
-14.05
-14.97
-15.74
-16.35
-16.78
-17.03
-17.10
-17.00
-16.79
-16.47
-16.02
-15.31
-14.22
-12.62
-10.53
-8.05
-5.39
-2.75
-0.30
1.88
3.80
5.45
6.82
7.84
8.49
8.80
8.93
9.05
9.30
9.66
9.97
10.00
9.56
8.63
7.37
6.06
4.98
4.25
3.84
3.59
3.34
2.97
2.49
1.95
1.41
0.93
0.52
0.24
0.17
0.45
1.18
2.47
4.29
6.56
9.13
11.84
14.56
17.16
19.47
21.33
22.59
23.13
22.89
21.94
20.43
18.57
16.55
14.55
12.63
10.77
8.91
7.02
5.11
3.24
1.49
-0.04
-1.33
-2.41
-3.34
-4.19
-5.03
-5.83
-6.55
-7.05
-7.22
-7.02
-6.53
-5.92
-5.43
-5.23
-5.38
-5.74
-6.12
-6.28
-6.13
-5.62
-4.86
-3.99
-3.13
-2.38
-1.76
-1.24
-0.76
-0.27
0.24
0.76
1.24
1.68
2.03
2.28
2.38
2.30
2.01
1.57
1.06
0.60
0.31
0.22
0.28
0.44
0.60
0.71
0.74
0.69
0.58
0.44
0.28
0.14
0.02
-0.06
-0.11
-0.09
0.01
0.20
0.46
0.71
0.82
0.69
0.26
-0.44
-1.28
-2.09
-2.72
-3.07
-3.12
-2.91
-2.53
-2.10
-1.72
-1.50
-1.48
-1.64
-1.88
-2.06
-2.04
-1.75
-1.18
-0.40
0.49
1.40
2.29
3.10
3.80
4.35
4.73
4.92
4.94
4.81
4.57
4.24
3.83
3.35
2.80
2.15
1.42
0.64
-0.08
-0.61
-0.83
-0.68
-0.20
0.47
1.14
1.69
2.06
2.33
2.70
3.38
4.54
6.22
8.34
10.69
13.10
15.45
17.81
20.32
23.17
26.41
29.96
33.60
37.09
40.30
43.20
45.82
48.26
50.63
53.06
55.66
58.35
60.70
61.88
60.89
56.97
49.94
40.42
29.62
18.95
9.56
2.10
-3.27
-6.64
-8.20
-8.12
-6.75
-4.70
-2.78
-1.86
-2.62
-5.39
-10.19
-16.82
-24.88
-33.71
-42.24
-48.97
-52.33
-51.17
-45.38
-35.99
-24.95
-14.32
-5.58
0.75
5.03
8.00
10.26
11.99
13.04
13.21
12.52
11.25
9.88
8.79
8.11
7.61
6.84
5.25
2.40
-1.81
-7.18
-13.18
-19.08
-24.16
-27.86
-29.97
-30.61
-30.31
-29.83
-30.06
-31.77
-35.42
-40.97
-47.87
-55.11
-61.51
-65.92
-67.56
-66.17
-62.07
-56.00
-48.93
-41.77
-35.16
-29.41
-24.51
-20.22
-16.25
-12.40
-8.57
-4.78
-1.14
2.26
5.34
8.10
10.52
12.66
14.63
16.64
18.93
21.75
25.24
29.32
33.72
38.06
42.03
45.57
48.90
52.47
56.79
62.12
68.41
75.26
82.14
88.71
95.02
101.50
108.68
116.72
125.11
132.72
138.13
140.11
137.94
131.42
120.65
105.92
87.66
66.87
45.30
25.17
8.33
-4.52
-14.12
-22.11
-30.03
-38.51
-46.99
-54.28
-59.55
-63.01
-65.86
-69.43
-74.18
-79.18
-82.81
-83.39
-80.05
-73.10
-63.75
-53.39
-43.01
-33.26
-24.97
-20.39
-21.89
-30.52
-44.92
-61.46
-75.84
-84.98
-88.32
-87.71
-87.72
-91.70
-100.09
-110.55
-120.05
-126.78
-130.74
-132.78
-133.47
-135.35
-139.83
-146.75
-154.55
-161.57
-166.99
-170.99
-174.06
-176.59
-182.09
-192.55
-207.26
-223.06
-237.04
-248.79
-260.76
-276.32
-275.81
-246.13
-185.58
-106.12
-23.76
49.91
108.91
150.74
175.52
185.65
181.26
163.99
137.41
107.66
80.86
63.78
61.22
74.98
103.13
137.11
167.89
189.22
200.37
204.96
208.34
214.78
226.31
243.15
257.41
263.49
259.03
245.89
227.78
208.42
190.12
173.79
159.60
145.56
130.60
114.89
99.69
84.77
68.44
48.05
20.18
-13.07
-46.92
-75.56
-95.26
-107.91
-116.84
-125.78
-139.03
-160.88
-190.50
-228.75
-276.09
-331.33
-379.33
-404.74
-396.03
-351.64
-279.46
-192.90
-107.70
-36.83
12.77
45.67
66.86
82.27
96.31
112.35
133.09
160.66
193.05
228.46
263.37
290.73
304.93
302.42
284.54
256.85
226.55
199.70
179.36
164.33
142.16
106.27
57.71
5.79
-39.22
-71.60
-90.80
-99.42
-101.45
-101.06
-99.94
-101.91
-108.20
-120.06
-137.85
-159.58
-180.23
-193.30
-193.18
-169.51
-125.59
-72.92
-25.41
7.33
23.03
25.79
22.19
17.92
16.36
16.78
18.02
19.41
21.19
24.08
29.33
36.21
43.77
51.49
58.59
65.70
73.70
82.69
91.21
96.35
94.75
84.39
65.77
41.27
15.15
-8.35
-26.52
-38.82
-46.39
-50.88
-53.84
-56.23
-58.61
-60.82
-62.41
-62.94
-62.03
-59.50
-55.47
-50.27
-44.54
-39.21
-35.16
-33.04
-33.01
-34.63
-36.77
-37.87
-36.22
-30.44
-19.94
-5.21
12.23
30.24
46.64
59.79
68.88
73.95
75.59
74.56
71.53
66.84
60.58
52.74
43.40
32.86
21.72
10.77
0.87
-7.29
-13.27
-16.98
-18.64
-18.66
-17.57
-15.89
-14.08
-12.55
-11.63
-11.51
-12.22
-13.60
-15.35
-17.10
-18.57
-19.64
-20.36
-20.92
-21.61
-22.68
-24.31
-26.55
-29.29
-32.27
-35.11
-37.49
-39.19
-40.27
-40.96
-41.64
-42.66
-44.25
-46.39
-48.91
-51.44
-53.54
-54.67
-54.24
-51.74
-46.78
-39.24
-29.40
-17.89
-5.63
6.35
17.15
26.12
32.98
37.77
40.74
42.24
42.63
42.19
41.25
40.14
39.19
38.73
38.91
39.71
40.90
42.14
43.10
43.51
43.29
42.44
41.02
39.10
36.73
34.05
31.26
28.60
26.23
24.15
22.15
19.91
17.17
13.86
10.17
6.43
2.99
0.09
-2.19
-3.89
-5.13
-6.07
-6.87
-7.71
-8.75
-10.09
-11.68
-13.45
-15.30
-17.24
-19.35
-21.73
-24.38
-27.16
-29.79
-31.96
-33.43
-34.10
-34.02
-33.34
-32.29
-31.15
-30.13
-29.35
-28.75
-28.07
-26.94
-25.03
-22.18
-18.57
-14.54
-10.52
-6.83
-3.54
-0.55
2.28
5.04
7.71
10.20
12.46
14.52
16.47
18.44
20.42
22.28
23.84
24.89
25.33
25.17
24.52
23.56
22.51
21.57
20.90
20.49
20.21
19.88
19.28
18.34
17.14
15.85
14.72
13.92
13.55
13.63
14.09
14.74
15.35
15.63
15.37
14.57
13.43
12.29
11.42
10.89
10.45
9.71
8.27
5.94
2.79
-0.83
-4.47
-7.63
-9.86
-10.90
-10.70
-9.53
-7.96
-6.65
-6.15
-6.64
-7.83
-9.00
-9.27
-7.92
-4.64
0.32
6.33
12.59
18.37
23.24
27.05
29.84
31.72
32.72
32.89
32.32
31.24
29.98
28.86
28.03
27.42
26.77
25.85
24.57
23.05
21.54
20.28
19.40
18.90
18.73
18.79
18.97
19.11
18.94
18.16
16.49
13.85
10.41
6.55
2.78
-0.50
-3.02
-4.67
-5.49
-5.53
-4.93
-3.87
-2.57
-1.28
-0.22
0.49
0.81
0.72
0.26
-0.53
-1.60
-2.84
-4.14
-5.42
-6.64
-7.82
-9.02
-10.23
-11.36
-12.23
-12.67
-12.62
-12.19
-11.62
-11.23
-11.25
-11.74
-12.51
-13.27
-13.74
-13.82
-13.57
-13.20
-12.90
-12.76
-12.76
-12.84
-12.95
-13.13
-13.42
-13.82
-14.23
-14.49
-14.48
-14.23
-13.88
-13.63
-13.61
-13.81
-14.05
-14.08
-13.71
-12.86
-11.59
-10.08
-8.51
-7.08
-5.95
-5.22
-4.89
-4.91
-5.18
-5.59
-6.05
-6.49
-6.84
-7.03
-6.98
-6.67
-6.08
-5.26
-4.28
-3.19
-2.05
-0.88
0.26
1.35
2.37
3.35
4.32
5.28
6.12
6.71
6.89
6.56
5.70
4.39
2.80
1.16
-0.29
-1.36
-1.95
-2.11
-1.93
-1.49
-0.84
0.10
1.45
3.32
5.69
8.40
11.22
13.87
16.16
17.96
19.20
19.87
20.00
19.68
19.07
18.35
17.70
17.28
17.16
17.32
17.63
17.93
18.04
17.87
17.43
16.82
16.20
15.67
15.29
14.97
14.52
13.80
12.67
11.17
9.40
7.51
5.57
3.63
1.63
-0.44
-2.51
-4.47
-6.19
-7.62
-8.79
-9.81
-10.77
-11.72
-12.64
-13.49
-14.26
-14.94
-15.54
-16.03
-16.34
-16.43
-16.31
-16.05
-15.71
-15.30
-14.75
-13.95
-12.84
-11.45
-9.90
-8.32
-6.82
-5.40
-4.05
-2.75
-1.50
-0.34
0.68
1.60
2.50
3.48
4.63
5.92
7.22
8.38
9.20
9.59
9.54
9.16
8.66
8.22
7.95
7.87
7.87
7.77
7.42
6.70
5.65
4.42
3.28
2.49
2.26
2.59
3.35
4.28
5.15
5.80
6.18
6.33
6.31
6.14
5.82
5.34
4.69
3.85
2.82
1.63
0.35
-0.92
-2.04
-2.93
-3.54
-3.88
-4.02
-4.03
-3.96
-3.89
-3.91
-4.08
-4.42
-4.88
-5.33
-5.63
-5.66
-5.43
-5.00
-4.49
-4.01
-3.63
-3.34
-3.13
-2.97
-2.85
-2.78
-2.76
-2.75
-2.72
-2.64
-2.54
-2.43
-2.36
-2.33
-2.30
-2.17
-1.88
-1.41
-0.83
-0.27
0.13
0.31
0.24
-0.02
-0.40
-0.80
-1.15
-1.43
-1.64
-1.85
-2.05
-2.27
-2.50
-2.67
-2.76
-2.74
-2.63
-2.49
-2.40
-2.42
-2.60
-2.93
-3.34
-3.75
-4.06
-4.20
-4.14
-3.90
-3.46
-2.85
-2.09
-1.26
-0.50
0.03
0.22
0.09
-0.20
-0.43
-0.37
0.05
0.79
1.68
2.56
3.33
3.92
4.34
4.59
4.68
4.64
4.55
4.51
4.66
5.05
5.65
6.32
6.87
7.18
7.18
6.94
6.61
6.31
6.13
6.06
6.00
5.83
5.46
4.85
4.04
3.12
2.22
1.38
0.66
0.05
-0.43
-0.76
-0.95
-1.03
-1.12
-1.28
-1.55
-1.89
-2.17
-2.31
-2.26
-2.06
-1.82
-1.66
-1.63
-1.69
-1.79
-1.83
-1.77
-1.60
-1.36
-1.09
-0.82
-0.56
-0.25
0.13
0.57
0.96
1.17
1.04
0.49
-0.41
-1.53
-2.69
-3.79
-4.79
-5.72
-6.58
-7.32
-7.83
-8.04
-7.95
-7.68
-7.38
-7.17
-7.08
-7.05
-7.10
-7.33
-7.92
-8.93
-10.10
-10.74
-9.81
-6.31
0.40
10.27
22.59
36.20
49.83
62.44
73.35
82.21
88.97
93.72
96.67
98.02
97.91
96.26
92.86
87.37
79.57
69.46
57.36
43.91
29.94
16.40
4.19
-5.98
-13.74
-19.16
-22.69
-25.04
-26.87
-28.63
-30.43
-32.20
-33.74
-34.90
-35.61
-35.87
-35.70
-35.18
-34.48
-33.82
-33.45
-33.48
-33.84
-34.27
-34.42
-33.97
-32.69
-30.46
-27.28
-23.21
-18.38
-13.02
-7.44
-1.97
3.09
7.53
11.25
14.22
16.41
17.76
18.15
17.43
15.48
12.28
7.98
3.04
-1.85
-5.78
-7.99
-8.09
-6.43
-4.06
-2.47
-3.06
-6.66
-13.23
-22.01
-31.83
-41.47
-49.89
-56.29
-60.07
-60.90
-58.84
-54.45
-48.73
-42.89
-38.01
-34.73
-33.13
-32.77
-33.01
-33.19
-32.87
-31.94
-30.55
-29.02
-27.63
-26.52
-25.60
-24.70
-23.65
-22.45
-21.25
-20.23
-19.50
-19.02
-18.64
-18.29
-18.00
-17.90
-18.11
-18.57
-18.98
-18.89
-17.87
-15.70
-12.47
-8.51
-4.32
-0.30
3.27
6.31
8.88
11.02
12.77
14.13
15.12
15.78
16.21
16.51
16.77
17.03
17.28
17.46
17.45
17.13
16.35
15.00
13.11
10.80
8.31
5.89
3.75
1.95
0.44
-0.90
-2.19
-3.47
-4.81
-6.25
-7.86
-9.71
-11.77
-13.88
-15.77
-17.17
-17.89
-17.91
-17.35
-16.40
-15.23
-13.93
-12.48
-10.87
-9.14
-7.36
-5.66
-4.10
-2.65
-1.20
0.41
2.31
4.47
6.76
8.94
10.80
12.18
13.05
13.47
13.58
13.56
13.60
13.82
14.28
14.93
15.66
16.26
16.47
16.11
15.04
13.29
11.04
8.60
6.33
4.51
3.27
2.56
2.15
1.81
1.34
0.71
0.02
-0.51
-0.64
-0.22
0.80
2.26
3.84
5.07
5.54
5.01
3.53
1.46
-0.65
-2.31
-3.28
-3.64
-3.74
-4.00
-4.73
-5.99
-7.64
-9.41
-11.02
-12.24
-12.90
-12.89
-12.13
-10.61
-8.48
-5.96
-3.38
-1.07
0.81
2.23
3.31
4.25
5.21
6.29
7.49
8.73
9.88
10.85
11.55
11.98
12.14
12.07
11.75
11.16
10.28
9.10
7.63
5.91
4.02
2.01
-0.12
-2.40
-4.92
-7.78
-11.02
-14.52
-18.11
-21.49
-24.38
-26.56
-27.91
-28.35
-27.83
-26.33
-23.87
-20.66
-17.05
-13.49
-10.42
-8.16
-6.81
-6.32
-6.54
-7.23
-8.14
-8.96
-9.48
-9.58
-9.35
-9.05
-9.08
-9.84
-11.62
-14.52
-18.40
-22.95
-27.64
-31.85
-34.95
-36.50
-36.35
-34.69
-31.95
-28.60
-24.97
-21.12
-16.82
-11.75
-5.68
1.40
9.15
17.03
24.41
30.73
35.67
39.13
41.15
41.86
41.39
39.84
37.32
34.02
30.26
26.40
22.80
19.72
17.25
15.35
13.83
12.51
11.29
10.20
9.38
8.99
9.14
9.78
10.77
11.91
13.05
14.13
15.17
16.18
17.05
17.61
17.64
17.04
15.89
14.41
12.86
11.43
10.13
8.87
7.50
5.96
4.28
2.57
0.93
-0.59
-1.98
-3.18
-4.10
-4.59
-4.54
-3.99
-3.13
-2.26
-1.70
-1.67
-2.23
-3.31
-4.72
-6.21
-7.53
-8.38
-8.52
-7.75
-6.05
-3.61
-0.83
1.77
3.72
4.67
4.54
3.50
1.86
-0.04
-1.91
-3.65
-5.28
-6.92
-8.72
-10.80
-13.20
-15.83
-18.51
-20.99
-23.07
-24.59
-25.56
-25.98
-25.91
-25.32
-24.11
-22.21
-19.64
-16.52
-13.08
-9.58
-6.25
-3.27
-0.80
1.04
2.19
2.74
2.90
3.00
3.29
3.85
4.60
5.31
5.80
6.02
6.07
6.11
6.23
6.50
6.94
7.60
8.63
10.19
12.43
15.42
19.13
23.51
28.50
34.03
39.87
45.57
50.42
53.58
54.36
52.51
48.35
42.69
36.59
30.95
26.29
22.67
19.82
17.40
15.15
12.99
10.97
9.15
7.55
6.15
4.94
3.95
3.25
2.88
2.80
2.91
3.05
3.11
3.01
2.79
2.54
2.36
2.26
2.19
2.01
1.59
0.84
-0.17
-1.27
-2.21
-2.78
-2.88
-2.59
-2.11
-1.71
-1.61
-1.87
-2.45
-3.17
-3.86
-4.37
-4.66
-4.74
-4.72
-4.68
-4.66
-4.68
-4.75
-4.89
-5.13
-5.51
-6.04
-6.66
-7.29
-7.81
-8.11
-8.12
-7.80
-7.15
-6.17
-4.92
-3.46
-1.89
-0.31
1.21
2.70
4.19
5.72
7.28
8.82
10.24
11.46
12.41
13.06
13.33
13.11
12.25
10.67
8.36
5.42
2.07
-1.45
-4.92
-8.14
-10.97
-13.32
-15.10
-16.34
-17.10
-17.49
-17.60
-17.47
-17.03
-16.25
-15.12
-13.76
-12.37
-11.13
-10.13
-9.34
-8.64
-7.95
-7.26
-6.69
-6.42
-6.58
-7.14
-7.96
-8.82
-9.50
-9.88
-9.87
-9.37
-8.30
-6.51
-3.96
-0.72
2.93
6.62
10.03
13.03
15.78
18.61
21.84
25.58
29.59
33.44
36.63
38.85
39.99
40.21
39.71
38.67
37.24
35.50
33.59
31.67
29.90
28.36
27.01
25.74
24.43
23.04
21.66
20.47
19.69
19.55
20.19
21.70
24.01
26.96
30.25
33.47
36.19
37.94
38.32
37.08
34.19
29.88
24.63
19.07
13.88
9.56
6.44
4.61
3.97
4.37
5.59
7.38
9.46
11.55
13.33
14.59
15.21
15.19
14.63
13.64
12.29
10.52
8.18
5.04
0.94
-4.17
-10.12
-16.61
-23.25
-29.75
-36.00
-42.10
-48.30
-54.81
-61.61
-68.45
-74.89
-80.43
-84.69
-87.39
-88.20
-86.76
-82.70
-75.83
-66.31
-54.73
-41.85
-28.32
-14.38
0.10
15.24
30.69
45.36
57.55
65.51
68.17
65.61
59.08
50.52
41.89
34.52
28.91
24.85
21.77
19.11
16.49
13.68
10.53
6.91
2.80
-1.62
-5.98
-9.85
-12.93
-15.24
-17.10
-18.98
-21.28
-24.18
-27.67
-31.51
-35.35
-38.84
-41.58
-43.25
-43.65
-42.82
-41.04
-38.81
-36.61
-34.78
-33.38
-32.24
-31.10
-29.78
-28.26
-26.63
-25.09
-23.77
-22.74
-22.02
-21.61
-21.59
-22.05
-23.06
-24.55
-26.28
-27.92
-29.14
-29.75
-29.71
-29.04
-27.72
-25.57
-22.32
-17.74
-11.87
-5.05
2.10
8.94
14.96
19.96
23.98
27.17
29.73
31.77
33.37
34.62
35.64
36.55
37.47
38.36
39.05
39.17
38.27
35.92
31.87
26.23
19.44
12.21
5.25
-0.93
-6.13
-10.40
-13.96
-16.97
-19.56
-21.79
-23.72
-25.48
-27.18
-28.83
-30.27
-31.25
-31.48
-30.85
-29.48
-27.70
-25.90
-24.34
-23.10
-22.04
-20.96
-19.71
-18.24
-16.62
-14.90
-13.09
-11.15
-9.06
-6.91
-4.88
-3.19
-1.99
-1.30
-0.99
-0.88
-0.82
-0.73
-0.60
-0.42
-0.18
0.17
0.63
1.20
1.78
2.27
2.56
2.61
2.43
2.04
1.48
0.81
0.13
-0.44
-0.85
-1.07
-1.17
-1.20
-1.20
-1.14
-0.97
-0.66
-0.24
0.22
0.65
1.00
1.28
1.48
1.59
1.52
1.23
0.70
0.02
-0.68
-1.21
-1.48
-1.44
-1.12
-0.63
-0.08
0.40
0.78
1.04
1.25
1.50
1.89
2.53
3.48
4.77
6.38
8.21
10.12
11.94
13.53
14.86
15.92
16.79
17.52
18.15
18.68
19.08
19.37
19.55
19.69
19.87
20.15
20.55
21.03
21.54
21.99
22.36
22.63
22.89
23.27
23.89
24.85
26.17
27.73
29.33
30.70
31.56
31.65
30.80
28.83
25.63
21.13
15.37
8.60
1.29
-5.93
-12.44
-17.76
-21.70
-24.26
-25.59
-25.80
-24.95
-23.10
-20.38
-17.09
-13.61
-10.36
-7.55
-5.17
-3.01
-0.75
1.84
4.80
7.99
11.11
13.91
16.23
18.10
19.75
21.50
23.65
26.30
29.26
32.07
34.06
34.68
33.66
31.33
28.66
27.07
28.18
33.29
42.94
56.56
72.38
87.63
99.08
103.84
100.14
87.92
68.85
45.86
22.22
0.59
-17.55
-32.00
-43.42
-52.70
-60.56
-67.39
-73.41
-78.88
-84.13
-89.35
-94.32
-98.33
-100.34
-99.39
-95.08
-87.80
-78.70
-69.25
-60.79
-54.06
-49.10
-45.40
-42.20
-38.87
-35.18
-31.25
-27.48
-24.22
-21.60
-19.54
-17.77
-16.06
-14.35
-12.77
-11.61
-11.11
-11.37
-12.30
-13.60
-14.97
-16.10
-16.85
-17.23
-17.41
-17.59
-17.91
-18.36
-18.72
-18.69
-17.96
-16.38
-13.94
-10.82
-7.24
-3.42
0.46
4.23
7.77
10.98
13.73
16.05
17.98
19.66
21.23
22.74
24.11
25.17
25.69
25.52
24.65
23.27
21.67
20.17
18.95
18.07
17.46
16.99
16.55
16.08
15.60
15.24
15.16
15.60
16.77
18.81
21.74
25.37
29.39
33.45
37.29
40.77
43.95
46.97
49.98
53.07
56.17
59.07
61.54
63.39
64.56
65.12
65.21
64.94
64.35
63.50
62.58
61.93
61.94
62.68
63.77
64.31
63.28
60.05
54.75
48.23
41.61
35.61
30.21
24.58
17.51
7.86
-5.24
-22.27
-43.35
-67.99
-94.75
-121.14
-144.02
-160.50
-168.99
-169.77
-164.81
-156.83
-148.20
-140.20
-132.97
-125.97
-118.66
-110.81
-102.52
-93.89
-84.82
-75.08
-64.47
-53.11
-41.49
-30.35
-20.39
-11.98
-5.07
0.76
6.07
11.25
16.37
21.16
25.18
28.10
29.90
30.82
31.29
31.65
32.00
32.21
32.12
31.73
31.32
31.40
32.40
34.46
37.26
40.14
42.27
42.90
41.49
37.81
32.05
24.83
17.27
10.72
6.48
5.23
6.76
10.04
13.67
16.51
18.12
18.86
19.51
20.73
22.76
25.33
27.85
29.68
30.38
29.77
28.03
25.63
23.21
21.42
20.68
20.97
21.92
22.99
23.84
24.48
25.34
27.02
29.98
34.38
40.10
47.00
55.12
64.67
75.79
88.22
101.01
112.51
120.69
123.45
119.09
106.53
85.48
56.59
21.56
-16.80
-54.78
-88.35
-114.07
-130.07
-136.40
-134.75
-127.70
-117.59
-106.02
-93.74
-81.11
-68.54
-56.79
-46.63
-38.49
-32.09
-26.48
-20.53
-13.43
-5.16
3.49
11.36
17.40
21.23
23.23
24.40
25.98
28.96
33.89
40.79
49.42
59.40
70.38
82.00
93.96
105.92
117.62
128.84
139.49
149.55
159.07
168.14
176.90
185.58
194.38
203.36
212.31
220.52
226.79
229.49
227.05
218.46
203.83
184.46
162.49
140.12
118.76
98.73
79.25
59.05
36.92
12.09
-15.60
-45.55
-76.26
-105.29
-129.55
-146.20
-153.73
-152.78
-146.04
-137.27
-129.84
-125.61
-124.78
-126.47
-129.74
-134.17
-139.87
-146.82
-154.34
-160.96
-164.83
-164.48
-159.44
-150.45
-139.21
-127.87
-118.36
-111.88
-108.63
-107.85
-108.04
-107.44
-104.55
-98.45
-89.03
-76.82
-62.74
-47.76
-32.67
-17.95
-3.76
9.99
23.58
37.50
52.26
68.06
84.28
99.27
110.44
114.93
110.48
96.12
72.30
40.46
2.41
-39.87
-83.97
-126.34
-162.08
-185.60
-192.31
-180.53
-152.45
-113.53
-70.44
-28.70
9.01
43.01
75.24
107.17
138.12
164.98
183.34
189.59
182.48
163.66
136.60
104.99
71.18
35.63
-2.50
-44.44
-91.08
-142.84
-199.67
-260.59
-322.88
-381.21
-427.97
-455.07
-456.97
-433.10
-388.52
-332.37
-274.78
-223.94
-184.30
-156.73
-139.70
-130.73
-127.18
-126.50
-126.24
-124.17
-118.66
-109.07
-95.79
-79.85
-62.60
-45.08
-27.91
-11.27
4.79
20.20
34.74
48.10
59.94
70.14
78.81
86.32
93.06
99.29
104.93
109.54
112.57
113.63
112.77
110.60
107.98
105.66
103.90
102.47
100.82
98.48
95.33
91.54
87.39
83.05
78.51
73.75
68.87
64.23
60.36
57.79
56.90
57.96
61.21
66.87
75.08
85.60
97.58
109.64
120.04
127.14
129.78
127.42
120.28
109.28
95.83
81.55
67.82
55.39
44.35
34.38
25.19
16.88
9.95
4.85
1.64
-0.26
-1.77
-3.60
-5.85
-8.02
-9.45
-9.78
-9.37
-9.04
-9.56
-11.29
-13.91
-16.67
-18.80
-19.83
-19.70
-18.68
-17.03
-14.89
-12.20
-8.90
-5.13
-1.37
1.74
3.58
3.80
2.40
-0.41
-4.41
-9.41
-15.15
-21.18
-26.83
-31.48
-34.90
-37.44
-39.97
-43.45
-48.44
-54.74
-61.58
-67.97
-73.17
-76.98
-79.58
-81.28
-82.24
-82.39
-81.52
-79.47
-76.24
-72.02
-67.04
-61.48
-55.55
-49.40
-43.26
-37.41
-32.13
-27.56
-23.66
-20.15
-16.67
-12.93
-8.81
-4.47
-0.23
3.61
6.88
9.60
12.01
14.39
16.97
19.83
22.84
25.77
28.30
30.17
31.26
31.61
31.43
31.00
30.58
30.27
30.08
29.91
29.65
29.23
28.57
27.64
26.38
24.79
22.82
20.47
17.76
14.82
11.96
9.66
8.41
8.56
10.10
12.61
15.30
17.32
17.98
16.92
14.21
10.17
5.34
0.31
-4.33
-8.10
-10.67
-11.88
-11.82
-10.79
-9.15
-7.24
-5.16
-2.79
0.21
4.15
9.15
14.98
21.13
27.00
32.12
36.25
39.39
41.61
42.92
43.30
42.70
41.23
39.17
36.98
35.13
34.03
33.87
34.58
35.78
36.88
37.21
36.33
34.15
31.03
27.62
24.55
22.19
20.55
19.34
18.20
16.92
15.38
13.46
10.90
7.23
2.11
-4.40
-11.63
-18.35
-23.25
-25.57
-25.43
-23.81
-22.06
-21.24
-21.60
-22.59
-23.25
-22.81
-21.06
-18.34
-15.25
-12.19
-9.13
-5.78
-1.90
2.37
6.38
9.26
10.33
9.41
7.01
4.01
1.30
-0.63
-1.80
-2.60
-3.42
-4.40
-5.31
-5.63
-4.87
-2.73
0.73
5.14
9.92
14.42
18.09
20.52
21.54
21.29
20.19
18.86
17.93
17.85
18.71
20.18
21.61
22.32
21.84
20.12
17.53
14.70
12.23
10.47
9.44
8.92
8.62
8.33
7.97
7.51
6.92
6.07
4.85
3.22
1.30
-0.62
-2.24
-3.40
-4.09
-4.52
-4.90
-5.35
-5.85
-6.21
-6.20
-5.71
-4.75
-3.45
-1.95
-0.30
1.55
3.65
5.92
8.15
9.96
11.05
11.32
10.98
10.43
10.08
10.13
10.48
10.83
10.90
10.63
10.21
10.00
10.37
11.53
13.51
16.15
19.19
22.30
25.17
27.54
29.25
30.31
30.89
31.21
31.55
32.03
32.70
33.54
34.47
35.42
36.23
36.70
36.57
35.68
34.09
32.19
30.60
29.98
30.80
33.20
36.98
41.68
46.70
51.22
54.25
54.56
51.17
43.71
32.72
19.64
6.38
-5.39
-14.70
-21.36
-25.59
-27.62
-27.44
-24.89
-19.78
-12.17
-2.45
8.63
20.05
30.69
39.68
46.82
52.80
59.10
67.23
77.98
90.64
103.11
112.62
116.88
114.90
107.13
94.92
79.74
62.85
45.38
28.32
12.56
-1.57
-14.57
-27.63
-41.69
-56.46
-69.98
-79.26
-81.93
-77.74
-69.05
-60.01
-54.62
-54.96
-60.57
-69.15
-77.93
-84.90
-89.23
-90.90
-90.08
-86.86
-81.36
-74.18
-66.49
-59.73
-55.01
-52.53
-51.35
-49.79
-46.05
-39.10
-29.28
-18.17
-8.28
-2.05
-1.09
-5.57
-14.25
-24.97
-35.56
-44.59
-51.73
-57.62
-63.32
-69.63
-76.70
-84.08
-90.97
-96.56
-100.26
-101.53
-99.88
-94.77
-85.81
-73.19
-57.90
-41.75
-26.95
-15.50
-8.55
-6.21
-7.62
-11.40
-16.21
-21.11
-25.64
-29.69
-33.19
-35.95
-37.62
-37.85
-36.54
-34.04
-31.07
-28.65
-27.65
-28.53
-31.11
-34.64
-38.05
-40.29
-40.72
-39.15
-35.87
-31.35
-26.09
-20.36
-14.23
-7.70
-0.82
6.22
13.16
19.93
26.75
34.24
43.10
53.88
66.58
80.62
94.94
108.44
120.32
130.38
138.95
146.64
154.09
161.62
169.17
176.36
182.71
187.71
190.89
191.81
190.17
186.06
180.14
173.59
167.69
163.12
159.39
154.81
147.02
134.06
115.25
91.54
65.01
37.94
11.82
-12.85
-36.19
-58.13
-77.75
-93.33
-102.99
-105.61
-101.43
-92.05
-79.68
-66.29
-52.93
-39.75
-26.47
-12.97
0.47
13.33
25.22
36.23
46.76
57.24
67.82
78.18
87.78
96.25
103.72
111.03
119.52
130.57
145.05
162.68
181.62
198.70
210.16
212.81
205.19
188.01
163.81
135.91
107.22
79.36
52.57
26.04
-1.58
-31.64
-65.09
-102.10
-141.64
-181.38
-218.03
-248.05
-268.60
-278.23
-277.04
-266.51
-249.04
-227.53
-205.07
-184.56
-168.27
-157.40
-151.82
-150.22
-150.66
-151.23
-150.62
-148.24
-144.07
-138.47
-131.87
-124.74
-117.46
-110.25
-103.17
-96.03
-88.53
-80.47
-71.84
-62.97
-54.43
-46.81
-40.54
-35.72
-32.14
-29.46
-27.35
-25.64
-24.28
-23.17
-22.09
-20.72
-18.72
-15.95
-12.52
-8.74
-4.95
-1.45
1.59
4.10
6.04
7.42
8.29
8.83
9.31
9.99
11.03
12.44
14.12
15.92
17.69
19.26
20.45
21.17
21.44
21.53
21.93
23.12
25.31
28.24
31.21
33.35
34.10
33.45
31.96
30.53
29.93
30.53
32.25
34.66
37.28
39.74
41.79
43.34
44.35
44.81
44.84
44.65
44.48
44.50
44.68
44.64
43.71
41.14
36.28
28.95
19.55
9.07
-1.13
-9.74
-15.92
-19.42
-20.57
-19.97
-18.23
-15.82
-13.17
-10.76
-9.12
-8.68
-9.51
-11.15
-12.75
-13.35
-12.28
-9.45
-5.31
-0.63
3.81
7.49
10.19
11.98
13.16
14.15
15.38
17.32
20.31
24.35
28.97
33.07
35.11
33.50
27.18
16.05
1.07
-16.15
-33.84
-50.56
-65.29
-77.31
-85.94
-90.50
-90.55
-86.29
-78.71
-69.45
-60.36
-52.85
-47.57
-44.35
-42.60
-41.66
-41.12
-40.86
-40.81
-40.85
-40.78
-40.40
-39.79
-39.38
-39.89
-42.04
-46.14
-51.84
-58.11
-63.54
-66.75
-66.83
-63.65
-57.81
-50.45
-42.78
-35.64
-29.38
-23.85
-18.75
-13.86
-9.13
-4.66
-0.43
3.70
7.89
12.07
15.82
18.34
18.80
16.67
11.94
5.14
-2.85
-11.08
-18.65
-24.74
-28.71
-30.08
-28.63
-24.45
-17.88
-9.42
0.43
11.17
22.36
33.45
43.92
53.27
61.19
67.66
72.95
77.51
81.92
86.66
92.06
98.28
105.18
112.36
119.18
124.85
128.57
129.71
127.97
123.48
116.74
108.50
