1540453470.00
64.000000
-0.00
-0.00
-0.00
-0.00
-0.00
-0.00
-0.00
-0.00
-0.00
-0.00
0.00
0.01
0.01
-0.00
-0.03
-0.05
-0.05
0.00
0.13
0.36
0.66
1.01
1.37
1.72
2.06
2.40
2.79
3.24
3.80
4.42
5.06
5.66
6.20
6.68
7.15
7.68
8.31
9.14
10.09
11.04
11.88
12.56
13.14
13.76
14.65
15.96
17.91
20.32
22.90
25.38
27.58
29.57
31.68
34.32
37.81
42.54
48.15
54.10
59.83
64.97
69.58
74.14
79.34
85.71
93.76
103.00
112.62
121.73
129.77
136.75
143.30
150.75
157.77
166.64
177.95
191.79
206.97
220.57
228.25
225.36
208.53
176.87
132.76
80.05
23.07
-34.94
-92.44
-149.16
-205.23
-260.37
-313.74
-363.87
-409.83
-450.91
-486.50
-515.74
-537.23
-549.22
-549.96
-538.37
-514.21
-478.67
-433.88
-382.45
-327.02
-269.84
-212.63
-156.66
-102.95
-52.37
-5.90
35.58
71.43
101.35
125.50
144.38
158.69
169.15
176.37
180.75
182.57
182.07
179.51
175.23
169.65
163.18
156.15
148.81
141.30
133.69
126.02
118.33
110.69
103.16
95.80
88.68
81.83
75.25
68.95
62.95
57.25
51.86
46.78
42.03
37.59
33.45
29.61
26.07
22.81
19.83
17.11
14.67
12.48
10.54
8.83
7.35
6.07
4.97
4.05
3.27
2.62
2.09
1.65
1.30
1.01
0.79
0.61
0.47
0.37
0.28
0.22
0.18
0.15
0.12
0.11
0.11
0.12
0.13
0.15
0.17
0.20
0.24
0.27
0.31
0.36
0.40
0.45
0.49
0.54
0.59
0.64
0.69
0.74
0.80
0.87
0.94
1.02
1.11
1.21
1.32
1.45
1.60
1.76
1.94
2.14
2.37
2.62
2.89
3.19
3.52
3.89
4.28
4.71
5.17
5.67
6.20
6.78
7.39
8.05
8.75
9.49
10.27
11.09
11.96
12.86
13.82
14.84
15.92
17.05
18.23
19.44
20.63
21.74
22.68
23.34
23.60
23.35
22.47
20.90
18.60
15.58
11.95
7.78
3.29
-1.32
-5.84
-10.04
-13.71
-16.70
-18.91
-20.26
-20.77
-20.47
-19.47
-17.88
-15.84
-13.49
-10.97
-8.38
-5.79
-3.29
-0.87
1.40
3.48
5.39
7.16
8.82
10.45
12.11
13.89
15.90
18.08
20.39
22.84
25.40
28.07
30.86
33.76
36.85
40.25
43.78
47.36
51.01
54.75
58.69
62.90
67.53
72.71
78.70
85.16
91.92
98.88
105.96
113.09
120.23
127.42
134.72
142.36
149.85
156.90
163.29
168.76
172.97
175.32
174.85
169.91
163.42
156.03
148.07
139.73
131.10
122.26
113.27
104.26
95.39
87.00
78.74
70.55
62.47
54.63
47.17
40.18
33.74
27.93
22.86
18.14
13.57
9.12
4.80
0.64
-3.37
-7.30
-11.21
-15.13
-19.30
-23.72
-28.22
-32.51
-36.37
-39.75
-42.81
-45.86
-49.29
-53.53
-58.66
-64.47
-70.56
-76.54
-82.27
-87.99
-94.57
-102.78
-112.82
-124.18
-135.89
-146.93
-156.45
-164.27
-170.89
-177.77
-186.66
-198.83
-214.67
-233.55
-253.77
-272.67
-287.21
-294.61
-293.89
-285.09
-268.71
-245.93
-218.75
-189.84
-161.90
-137.60
-118.89
-109.63
-111.69
-123.80
-142.47
-163.81
-184.35
-200.07
-207.36
-202.68
-189.93
-173.81
-157.86
-144.89
-138.38
-141.88
-155.71
-178.48
-205.60
-240.37
-282.63
-326.04
-360.94
-380.80
-385.75
-379.70
-371.73
-369.95
-391.59
-445.18
-525.39
-617.03
-703.87
-774.45
-820.61
-841.94
-766.33
-571.45
-296.80
-17.36
209.48
365.58
445.95
478.92
482.01
465.49
424.79
360.04
286.51
223.85
187.07
180.48
201.22
238.17
280.57
311.37
320.52
308.40
281.93
248.62
213.08
179.65
149.76
125.75
104.30
83.77
66.04
54.66
51.94
57.04
68.03
80.83
92.45
98.62
97.48
90.39
80.48
70.84
63.17
58.55
56.86
58.24
62.19
68.50
77.17
87.52
97.84
105.50
108.26
104.93
96.03
83.53
69.81
56.86
45.88
37.61
32.76
32.34
37.48
48.87
66.24
88.17
112.42
136.65
159.09
178.99
196.64
213.24
230.46
249.96
272.92
299.43
328.32
357.06
382.25
400.27
408.14
404.07
387.89
360.91
325.52
284.69
241.25
197.59
155.68
117.37
84.63
59.53
43.55
36.76
37.30
41.55
45.29
45.16
39.77
29.80
17.17
3.83
-9.14
-21.48
-33.20
-43.88
-52.48
-57.66
-58.53
-55.07
-48.07
-38.92
-29.02
-19.73
-12.27
-7.82
-7.42
-11.72
-20.57
-32.89
-46.56
-58.66
-66.04
-66.04
-57.29
-40.34
-17.75
6.53
28.18
43.74
51.46
51.42
45.12
34.64
21.99
8.72
-3.99
-15.22
-24.12
-29.97
-32.33
-31.16
-26.86
-20.13
-11.75
-2.38
7.39
16.95
25.48
31.96
35.36
35.05
31.08
24.29
16.05
7.74
0.30
-5.95
-11.18
-15.70
-19.67
-22.92
-25.08
-25.76
-24.81
-22.44
-19.23
-15.94
-13.23
-11.55
-10.99
-11.40
-12.42
-13.48
-13.74
-12.12
-7.52
0.85
12.90
27.52
42.54
55.33
63.46
65.42
60.89
50.57
35.87
18.43
0.08
-17.23
-31.57
-41.22
-45.09
-43.22
-37.04
-29.11
-22.60
-20.31
-23.78
-33.08
-46.96
-63.67
-81.58
-99.46
-116.08
-129.66
-137.65
-137.23
-126.57
-106.02
-78.65
-49.48
-23.82
-5.43
4.47
7.00
4.46
-1.17
-8.91
-18.78
-30.72
-43.67
-55.15
-61.89
-61.00
-51.25
-33.69
-11.35
11.81
32.22
47.51
56.78
60.23
58.62
52.97
44.43
34.39
24.49
16.37
11.33
9.93
11.88
16.02
20.80
24.49
25.69
23.62
18.29
10.47
1.46
-7.28
-14.60
-19.85
-23.06
-24.72
-25.50
-25.93
-26.25
-26.45
-26.39
-26.09
-25.71
-25.47
-25.51
-25.74
-25.87
-25.67
-25.10
-24.42
-24.10
-24.49
-25.74
-27.72
-30.01
-32.03
-33.01
-31.97
-27.94
-20.32
-9.33
3.68
16.58
27.08
33.64
35.92
34.79
31.67
27.80
23.81
19.58
14.65
8.58
1.32
-6.73
-14.77
-21.83
-27.04
-29.88
-30.28
-28.62
-25.46
-21.25
-16.12
-10.05
-3.20
3.81
9.93
13.99
15.23
13.54
9.42
3.67
-3.05
-10.32
-17.87
-25.29
-32.04
-37.47
-41.18
-43.22
-44.08
-44.42
-44.73
-45.18
-45.64
-46.01
-46.38
-47.17
-49.11
-53.03
-59.62
-69.06
-80.72
-93.02
-103.53
-109.60
-109.13
-101.48
-87.85
-71.08
-54.81
-42.43
-36.16
-36.62
-42.95
-53.16
-64.70
-74.84
-81.33
-82.72
-78.78
-70.29
-58.48
-44.20
-27.41
-7.21
17.55
47.46
82.02
119.75
158.63
196.50
231.09
259.54
278.30
283.69
273.25
247.22
209.28
165.66
123.32
87.49
60.34
40.84
26.15
13.32
0.67
-11.83
-23.06
-31.60
-36.57
-37.86
-36.10
-32.29
-27.53
-22.83
-18.95
-16.50
-15.91
-17.52
-21.47
-27.58
-35.16
-42.84
-48.80
-51.31
-49.39
-43.31
-34.61
-25.43
-17.69
-12.38
-9.34
-7.78
-6.94
-6.57
-6.79
-7.45
-7.54
-5.27
1.13
12.22
26.57
41.01
51.74
55.97
52.94
43.96
31.56
18.24
5.67
-5.32
-14.30
-20.73
-23.92
-23.42
-19.57
-13.69
-7.76
-3.72
-2.80
-5.19
-10.23
-16.82
-23.86
-30.48
-35.84
-38.96
-38.59
-33.56
-23.31
-8.55
8.58
24.86
36.99
42.63
41.08
33.30
21.23
7.04
-7.41
-20.61
-31.19
-37.84
-39.55
-36.06
-28.26
-18.15
-8.40
-1.53
0.71
-2.36
-10.47
-22.72
-37.76
-53.83
-68.62
-79.19
-82.43
-75.89
-58.80
-32.90
-2.37
27.20
50.36
63.58
66.03
59.29
46.33
30.29
13.80
-1.03
-12.33
-18.47
-18.40
-12.36
-2.23
8.82
17.35
20.88
18.62
11.48
1.24
-10.38
-22.40
-34.46
-46.36
-57.31
-65.68
-69.33
-66.30
-55.73
-38.27
-16.05
7.84
30.14
48.04
59.54
63.62
60.20
50.18
35.50
19.04
4.13
-6.16
-9.96
-7.29
-0.02
8.66
15.40
17.78
15.13
8.50
0.14
-7.31
-11.82
-12.40
-9.29
-3.78
2.29
6.99
8.83
7.10
2.01
-5.52
-14.10
-22.48
-29.89
-36.11
-41.26
-45.20
-47.13
-45.57
-38.88
-26.09
-7.71
13.97
35.44
53.01
64.00
67.47
64.33
56.71
47.22
38.17
31.12
26.85
25.39
26.34
28.96
32.35
35.56
37.66
37.73
35.01
29.02
19.60
7.11
-7.64
-23.34
-38.17
-49.92
-56.11
-54.47
-43.68
-23.98
2.45
31.76
59.30
80.84
93.49
96.26
89.86
76.13
57.42
36.19
14.98
-3.65
-17.31
-24.31
-24.28
-18.49
-9.68
-1.28
3.72
3.74
-1.06
-9.15
-18.49
-27.42
-35.13
-41.62
-47.28
-52.48
-57.23
-61.16
-63.44
-62.87
-58.14
-48.26
-33.13
-13.99
6.55
25.15
38.77
45.64
45.81
40.92
33.42
25.74
19.61
15.83
14.48
15.14
17.12
19.57
21.54
22.17
20.77
17.00
11.01
3.45
-4.69
-12.28
-18.27
-21.99
-23.19
-22.19
-19.73
-16.86
-14.67
-14.05
-15.55
-19.40
-25.43
-33.14
-41.66
-49.67
-55.46
-57.22
-53.47
-43.59
-28.21
-9.23
10.65
28.61
42.38
50.69
53.27
50.59
43.60
33.49
21.68
9.91
0.08
-6.03
-7.32
-3.81
3.19
11.41
18.34
22.01
21.59
17.45
10.78
3.03
-4.55
-11.16
-16.30
-19.65
-21.00
-20.30
-17.90
-14.53
-11.18
-8.75
-7.64
-7.60
-7.86
-7.47
-5.87
-3.06
0.46
4.01
7.19
10.06
13.02
16.56
20.87
25.67
30.31
33.93
35.84
35.64
33.33
29.21
23.78
17.63
11.36
5.47
0.30
-3.99
-7.43
-10.14
-12.31
-14.09
-15.52
-16.59
-17.29
-17.73
-18.25
-19.45
-22.18
-27.24
-35.11
-45.49
-56.99
-67.11
-72.69
-70.82
-59.89
-40.45
-15.25
11.30
34.56
50.87
58.52
57.75
50.22
38.20
23.86
9.16
-4.15
-14.38
-20.08
-20.44
-15.74
-7.48
1.96
9.95
14.55
14.90
11.38
5.17
-2.38
-10.12
-17.34
-23.56
-28.34
-31.13
-31.54
-29.60
-26.02
-22.17
-19.52
-19.18
-21.30
-25.12
-29.21
-32.17
-32.96
-31.09
-26.46
-19.12
-9.26
2.69
15.81
28.63
39.33
46.19
48.13
44.97
37.42
26.74
14.36
1.57
-10.50
-20.75
-28.04
-31.31
-29.89
-23.86
-14.35
-3.33
6.89
14.37
18.05
18.00
15.03
10.23
4.47
-1.87
-8.76
-16.21
-23.95
-31.21
-36.83
-39.38
-37.61
-30.72
-18.77
-2.78
15.36
33.23
48.48
59.34
65.02
65.61
61.84
54.68
44.98
33.62
21.57
10.21
1.10
-4.40
-5.53
-2.47
3.66
11.20
18.46
24.09
27.30
27.85
25.90
21.92
16.45
10.03
3.05
-4.22
-11.60
-18.96
-26.01
-32.28
-37.07
-39.50
-38.78
-34.35
-26.14
-14.81
-1.67
11.45
22.64
30.38
33.87
33.21
29.18
23.00
15.97
9.31
3.93
0.41
-1.03
-0.51
1.46
4.08
6.41
7.42
6.33
2.74
-3.21
-10.83
-19.01
-26.49
-32.23
-35.65
-36.82
-36.35
-35.18
-34.21
-34.02
-34.73
-35.95
-36.98
-37.03
-35.57
-32.51
-28.35
-24.15
-21.21
-20.64
-22.79
-26.90
-31.13
-33.17
-30.89
-23.31
-10.93
4.43
20.17
33.84
43.69
49.06
50.10
47.57
42.42
35.60
28.06
20.66
14.08
8.66
4.28
0.43
-3.60
-8.45
-14.47
-21.74
-30.20
-39.85
-50.56
-61.78
-72.11
-79.21
-80.28
-73.05
-56.77
-32.81
-4.51
23.72
47.64
64.26
72.47
72.83
67.09
57.39
45.64
33.22
20.93
9.15
-1.96
-12.33
-21.85
-30.31
-37.07
-40.97
-40.33
-33.58
-20.16
-1.33
19.71
38.58
51.19
55.11
50.36
38.89
23.55
6.81
-9.72
-25.07
-38.14
-47.10
-49.62
-43.73
-28.97
-7.15
17.96
41.69
60.04
70.89
74.36
72.11
66.28
58.32
48.70
37.27
24.05
9.98
-3.12
-13.05
-18.28
-18.44
-14.51
-8.28
-1.60
4.15
8.40
11.05
12.20
11.76
9.44
4.82
-2.37
-12.03
-23.51
-35.51
-46.13
-53.05
-54.13
-47.94
-34.54
-15.64
5.74
26.08
42.35
52.76
56.93
55.55
49.73
40.61
29.18
16.45
3.67
-7.59
-15.81
-19.81
-19.24
-14.64
-7.38
0.84
8.34
13.93
17.05
17.76
16.46
13.63
9.48
3.95
-3.26
-12.40
-23.30
-35.09
-46.14
-54.35
-57.71
-55.07
-46.69
-34.24
-20.41
-7.98
0.94
5.41
5.59
2.26
-3.72
-11.67
-21.03
-31.13
-40.84
-48.67
-53.03
-52.81
-47.82
-39.03
-28.40
-18.26
-10.61
-6.49
-5.79
-7.45
-10.12
-12.78
-15.07
-17.37
-20.42
-25.05
-31.76
-40.67
-51.20
-62.03
-70.99
-75.33
-72.39
-60.50
-39.81
-12.52
17.51
45.89
68.93
84.37
91.70
91.66
85.64
75.06
61.22
45.48
29.45
15.13
4.59
-0.55
0.22
5.89
14.14
22.09
27.28
28.48
26.01
21.19
15.55
10.02
4.56
-1.52
-9.09
-18.52
-29.41
-40.53
-49.98
-55.41
-54.37
-44.92
-26.34
0.20
31.56
63.21
90.53
109.99
119.97
120.77
113.91
101.41
85.11
66.70
47.88
30.50
16.43
7.13
3.11
3.72
7.36
11.91
15.36
16.30
14.12
8.97
1.59
-7.13
-16.28
-25.15
-33.14
-39.71
-44.44
-47.19
-48.29
-48.48
-48.56
-48.96
-49.28
-48.25
-44.26
-36.13
-23.79
-8.50
7.55
22.02
33.20
40.36
43.68
43.75
41.15
36.11
28.72
19.25
8.42
-2.50
-12.10
-19.34
-23.92
-26.43
-27.96
-29.57
-31.85
-34.75
-37.74
-40.19
-41.63
-41.86
-40.81
-38.40
-34.66
-29.87
-24.78
-20.55
-18.40
-19.07
-22.37
-27.17
-31.69
-34.17
-33.31
-28.62
-20.30
-8.99
4.45
19.08
33.77
47.18
57.79
64.19
65.43
61.35
52.65
40.74
27.42
14.36
2.86
-6.37
-13.05
-17.23
-19.02
-18.56
-16.00
-11.72
-6.43
-1.17
2.75
4.07
1.85
-4.39
-14.46
-27.64
-42.49
-56.94
-68.30
-73.63
-70.42
-57.44
-35.44
-7.37
22.21
48.32
66.95
76.06
75.89
68.37
56.26
42.12
27.83
14.56
3.07
-5.96
-11.87
-14.06
-12.35
-7.13
0.58
9.31
17.51
23.86
27.50
28.13
26.04
21.87
16.49
10.68
5.00
-0.23
-4.90
-8.79
-11.60
-12.81
-11.91
-8.58
-3.00
4.08
11.46
17.74
21.80
23.01
21.56
18.33
14.58
11.53
9.93
9.77
10.46
11.11
11.04
10.05
8.43
6.60
4.70
2.28
-1.54
-7.66
-16.43
-27.19
-38.35
-47.66
-52.93
-52.55
-46.03
-34.16
-19.04
-3.61
9.12
16.92
19.15
16.86
12.42
8.39
6.48
6.88
8.40
9.23
8.05
4.83
1.08
-0.63
2.29
11.41
26.57
45.68
65.34
81.78
91.93
94.27
88.94
77.37
61.60
43.57
24.82
6.45
-10.56
-25.19
-36.26
-42.85
-44.62
-42.17
-37.07
-31.50
-27.54
-26.35
-27.80
-30.54
-32.62
-32.35
-29.09
-23.40
-16.78
-10.99
-7.26
-6.02
-6.82
-8.74
-10.80
-12.26
-12.73
-11.97
-9.77
-5.92
-0.36
6.62
14.21
21.11
25.76
26.79
23.49
15.98
5.33
-6.86
-18.71
-28.45
-34.70
-36.62
-34.05
-27.63
-18.76
-9.39
-1.64
2.85
3.45
0.64
-4.19
-9.44
-13.97
-17.41
-20.14
-22.79
-25.58
-27.98
-28.82
-26.75
-20.81
-10.94
2.07
16.75
31.46
44.65
55.04
61.63
63.69
60.79
53.03
41.15
26.62
11.28
-2.97
-14.68
-23.06
-27.90
-29.43
-28.09
-24.44
-19.27
-13.64
-8.70
-5.35
-3.84
-3.64
-3.65
-2.84
-0.78
2.00
4.32
5.09
3.88
1.36
-0.91
-1.19
1.70
7.89
16.38
25.45
33.27
38.44
40.21
38.54
33.81
26.66
17.67
7.52
-3.04
-13.00
-21.10
-26.03
-26.67
-22.46
-13.73
-1.79
11.19
22.53
29.76
31.28
26.95
18.16
7.34
-2.79
-10.21
-14.04
-14.61
-12.91
-9.88
-5.93
-0.86
5.84
14.51
24.94
36.28
47.29
56.59
62.97
65.53
63.85
57.99
48.49
36.33
22.72
9.01
-3.57
-14.06
-21.98
-27.38
-30.85
-33.28
-35.62
-38.50
-41.95
-45.48
-48.15
-48.98
-47.24
-42.66
-35.54
-26.69
-17.29
-8.56
-1.60
3.01
5.26
5.84
5.85
6.48
8.51
12.02
16.26
20.00
22.05
21.90
20.00
17.65
16.25
16.54
18.06
19.32
18.54
14.64
7.73
-0.92
-9.62
-17.14
-23.28
-28.82
-34.87
-42.21
-50.70
-59.23
-66.03
-69.13
-66.82
-57.95
-42.28
-20.75
4.46
30.07
52.33
67.98
75.08
73.44
64.52
50.73
34.61
18.30
3.25
-9.60
-19.51
-25.87
-28.27
-26.64
-21.48
-13.95
-5.63
1.73
6.52
7.77
5.33
-0.13
-7.41
-15.30
-23.17
-31.17
-39.99
-50.26
-61.76
-72.94
-81.05
-82.81
-75.45
-57.81
-30.70
2.93
38.62
71.41
96.76
111.53
114.60
106.91
91.07
70.49
48.49
27.52
9.07
-6.30
-18.42
-27.17
-32.32
-33.66
-31.26
-25.60
-17.58
-8.26
1.30
10.14
17.43
22.32
23.96
21.70
15.35
5.47
-6.56
-18.87
-29.52
-36.97
-40.28
-39.02
-33.07
-22.67
-8.61
7.56
23.52
36.63
44.70
46.75
43.29
35.99
26.87
17.55
8.78
0.59
-7.16
-14.43
-20.73
-25.30
-27.46
-26.93
-23.98
-19.32
-13.89
-8.66
-4.48
-1.96
-1.34
-2.39
-4.50
-6.75
-8.22
-8.22
-6.37
-2.71
2.52
8.92
16.12
23.65
31.04
37.73
43.19
47.04
48.99
48.89
46.54
41.77
34.54
25.11
14.16
2.63
-8.47
-18.39
-26.78
-33.73
-39.47
-44.24
-48.05
-50.80
-52.41
-52.80
-52.01
-49.97
-46.53
-41.45
-34.67
-26.54
-17.86
-9.72
-3.23
0.88
2.48
1.99
0.19
-2.01
-3.76
-4.39
-3.49
-0.99
2.72
6.77
10.03
11.41
10.27
6.69
1.46
-4.35
-9.76
-14.33
-18.26
-22.16
-26.68
-32.15
-38.33
-44.39
-49.07
-50.87
-48.36
-40.59
-27.53
-10.41
8.36
25.75
38.91
46.00
46.69
41.97
33.51
23.04
11.87
0.94
-8.99
-17.14
-22.61
-24.70
-23.25
-18.73
-12.20
-5.02
1.49
6.28
8.75
8.68
6.10
1.13
-6.09
-15.39
-26.34
-38.10
-49.14
-57.51
-61.09
-58.26
-48.38
-31.91
-10.39
13.93
38.52
60.95
79.04
91.10
96.10
93.84
85.05
71.16
54.14
36.01
18.59
3.22
-9.31
-18.76
-25.34
-29.50
-31.85
-32.87
-32.89
-32.05
-30.40
-28.05
-25.35
-22.95
-21.57
-21.77
-23.53
-26.22
-28.56
-29.10
-26.57
-20.27
-10.38
2.25
16.26
30.19
42.80
53.32
61.58
67.84
72.53
75.83
77.40
76.49
72.28
64.43
53.40
40.46
27.17
14.83
3.97
-5.67
-14.81
-24.16
-34.08
-44.36
-54.30
-62.66
-67.85
-68.20
-62.38
-50.05
-32.34
-11.87
7.84
23.31
32.28
34.28
30.63
23.70
16.01
9.32
4.41
1.22
-0.74
-1.95
-2.80
-3.64
-4.98
-7.39
-11.31
-16.75
-23.17
-29.53
-34.72
-37.90
-38.73
-37.39
-34.37
-30.16
-25.15
-19.57
-13.52
-7.15
-0.74
5.27
10.29
13.71
15.11
14.54
12.67
10.67
9.94
11.61
16.08
22.88
30.70
37.80
42.56
43.82
41.22
35.10
26.32
15.96
5.05
-5.51
-14.91
-22.41
-27.35
-29.30
-28.33
-25.02
-20.41
-15.67
-11.62
-8.47
-5.85
-3.18
-0.03
3.43
6.54
8.42
8.47
6.67
3.65
0.46
-1.79
-2.15
0.02
4.83
11.84
19.95
27.57
32.95
34.62
31.96
25.37
16.10
5.74
-4.28
-13.16
-20.66
-26.95
-32.15
-36.09
-38.16
-37.50
-33.34
-25.42
-14.40
-1.82
10.21
19.60
24.93
25.83
23.09
18.31
13.44
10.15
9.47
11.56
15.78
20.86
25.23
27.43
26.37
21.57
13.15
1.78
-11.33
-24.59
-36.17
-44.27
-47.54
-45.62
-39.35
-30.77
-22.57
-17.22
-16.12
-19.21
-25.04
-31.50
-36.51
-38.61
-37.02
-31.46
-21.90
-8.52
8.03
26.24
43.70
57.47
64.84
64.31
56.00
41.60
23.68
4.81
-13.02
-28.42
-40.14
-46.79
-46.85
-39.41
-25.07
-6.43
12.15
25.77
30.53
24.75
9.29
-12.86
-37.68
-60.94
-78.67
-87.41
-84.37
-68.09
-39.20
-1.01
40.65
78.59
106.03
118.42
114.53
96.38
68.28
35.37
2.54
-26.17
-47.64
-59.59
-60.79
-51.38
-33.23
-9.68
15.10
37.28
54.18
64.62
68.60
66.65
59.19
46.41
28.43
5.77
-20.11
-46.42
-68.92
-82.40
-81.84
-64.15
-29.77
16.55
66.57
110.73
141.01
153.22
147.76
128.70
101.75
72.40
44.70
21.26
3.67
-7.17
-10.95
-8.36
-1.31
7.36
14.54
17.81
16.04
9.64
0.05
-10.97
-21.98
-32.04
-40.57
-46.96
-50.40
-50.13
-45.89
-38.34
-28.99
-19.90
-12.79
-8.44
-6.55
-6.03
-5.72
-5.03
-4.12
-3.66
-4.28
-6.00
-8.03
-8.95
-7.18
-1.54
8.32
21.73
37.01
51.85
63.71
70.42
70.67
64.34
52.43
36.83
19.79
3.44
-10.47
-20.79
-27.01
-29.25
-28.33
-25.72
-23.22
-22.60
-25.18
-31.60
-41.79
-55.14
-70.60
-86.64
-101.06
-110.99
-113.26
-105.28
-85.95
-56.44
-20.17
17.80
52.01
77.91
92.77
96.01
88.86
73.73
53.52
31.07
9.02
-10.25
-24.55
-32.14
-32.08
-24.71
-11.80
3.63
18.08
28.51
33.11
31.66
25.24
15.56
4.27
-7.49
-19.06
-30.01
-39.76
-47.49
-52.28
-53.44
-50.90
-45.27
-37.74
-29.75
-22.62
-17.32
-14.35
-13.76
-15.06
-17.20
-18.64
-17.64
-12.79
-3.56
9.48
24.53
39.08
50.48
56.57
56.20
49.40
37.21
21.32
3.63
-14.11
-30.48
-44.20
-54.03
-58.59
-56.63
-47.52
-31.79
-11.51
10.03
28.94
41.86
46.54
42.35
30.14
12.02
-8.78
-28.16
-41.56
-44.71
-34.90
-12.08
20.59
57.26
90.85
115.14
126.43
124.30
111.21
91.21
68.61
46.98
28.80
15.48
7.53
4.61
5.47
8.16
10.36
9.99
5.89
-1.95
-12.47
-24.13
-35.29
-44.73
-51.61
-55.39
-55.77
-52.69
-46.48
-38.12
-29.05
-20.97
-15.28
-12.66
-12.85
-14.73
-16.79
-17.60
-16.23
-12.36
-6.14
2.07
11.84
22.86
34.72
46.78
58.12
67.54
73.72
75.62
72.71
65.21
54.09
40.71
26.54
12.80
0.37
-10.07
-17.82
-22.13
-22.54
-19.11
-12.95
-5.99
-0.55
1.41
-1.09
-7.98
-18.26
-30.51
-42.95
-53.56
-60.13
-60.56
-53.60
-39.47
-20.26
0.58
19.12
32.29
38.58
38.28
32.90
24.40
14.44
4.27
-5.27
-13.49
-19.71
-23.44
-24.64
-23.92
-22.54
-22.03
-23.78
-28.46
-35.90
-45.16
-54.93
-64.03
-71.68
-77.68
-82.15
-85.38
-87.63
-89.05
-89.65
-89.18
-87.14
-82.68
-74.81
-62.68
-46.05
-25.59
-2.93
19.84
40.63
57.90
71.01
80.04
85.54
88.12
88.33
86.54
83.21
78.84
74.04
69.40
65.31
61.77
58.40
54.60
49.78
43.65
36.37
28.45
20.54
13.08
6.02
-1.03
-8.61
-16.96
-25.83
-34.38
-41.55
-46.33
-48.25
-47.40
-44.50
-40.51
-36.36
-32.50
-28.77
-24.39
-18.16
-9.08
3.13
17.50
31.87
43.33
49.23
48.09
40.15
27.25
12.10
-2.64
-15.08
-24.45
-30.74
-34.30
-35.49
-34.61
-32.07
-28.67
-25.52
-23.87
-24.75
-28.58
-35.13
-43.62
-52.96
-61.96
-69.33
-73.61
-73.32
-67.16
-54.66
-36.55
-14.92
7.15
26.37
40.18
47.35
48.19
44.18
37.50
30.40
24.77
21.97
22.61
26.50
32.59
39.21
44.36
46.41
44.53
39.03
31.34
23.52
17.70
15.39
17.18
22.53
30.01
37.67
43.46
45.77
43.70
37.39
27.87
16.86
6.32
-1.90
-6.33
-6.03
-0.70
9.08
21.86
35.28
46.53
53.06
53.31
47.20
36.11
22.34
8.23
-4.47
-14.90
-22.93
-28.70
-32.38
-34.00
-33.65
-31.64
-28.59
-25.40
-23.00
-22.13
-23.17
-26.15
-30.79
-36.60
-42.95
-49.02
-53.82
-56.26
-55.28
-50.09
-40.43
-26.72
-10.12
7.48
23.91
37.09
45.39
48.03
45.19
37.84
27.53
15.99
4.84
-4.62
-11.47
-15.39
-16.58
-15.86
-14.43
-13.60
-14.41
-17.34
-22.23
-28.51
-35.51
-42.72
-50.02
-57.51
-65.18
-72.56
-78.56
-81.58
-79.96
-72.60
-59.38
-41.33
-20.49
0.76
20.17
36.15
47.89
55.27
58.68
58.74
56.30
52.28
47.70
43.48
40.31
38.45
37.73
37.60
37.38
36.64
35.33
33.88
32.94
33.04
34.23
35.91
36.85
35.63
31.11
22.80
11.21
-2.19
-15.19
-25.24
-30.11
-28.44
-20.26
-7.08
8.42
23.07
34.09
39.69
39.37
33.81
24.44
13.04
1.39
-8.92
-16.75
-21.47
-23.12
-22.32
-20.13
-17.66
-15.75
-14.93
-15.32
-16.80
-19.13
-21.98
-24.92
-27.51
-29.37
-30.29
-30.34
-29.72
-28.67
-27.23
-25.25
-22.54
-19.05
-15.00
-10.74
-6.53
-2.20
2.84
9.30
17.66
27.70
38.35
48.08
55.40
59.39
59.99
57.77
53.60
48.26
42.19
35.54
28.31
20.56
12.45
4.32
-3.41
-10.20
-15.47
-18.79
-20.02
-19.50
-18.13
-17.03
-17.17
-19.02
-22.43
-26.80
-31.42
-35.72
-39.27
-41.66
-42.39
-40.79
-36.47
-29.71
-21.69
-14.31
-9.69
-9.41
-13.97
-22.65
-33.92
-45.97
-57.33
-66.93
-74.09
-78.29
-78.95
-75.67
-68.52
-58.38
-46.95
-36.47
-29.13
-26.62
-29.74
-38.40
-51.73
-68.28
-86.21
-103.36
-117.40
-125.96
-127.13
-119.83
-104.14
-81.48
-54.23
-25.27
2.65
27.42
47.67
62.77
72.62
77.60
78.41
76.10
71.96
67.28
63.11
60.07
58.41
58.13
59.17
61.50
65.05
69.48
74.05
77.50
78.29
74.89
66.41
52.96
36.12
18.87
5.13
-1.19
2.55
16.73
39.07
65.19
89.81
108.25
117.56
116.95
107.48
91.38
71.44
50.48
31.14
15.70
5.66
1.47
2.39
6.63
12.01
16.60
19.15
19.30
17.30
13.54
8.33
1.72
-6.23
-15.18
-24.29
-32.28
-37.60
-38.89
-35.26
-26.42
-12.75
4.91
25.38
47.35
69.36
89.87
107.20
119.60
125.55
124.15
115.48
100.70
81.94
61.82
42.94
27.29
16.09
9.64
7.52
8.73
11.87
15.25
17.22
16.41
12.06
4.12
-6.67
-18.84
-30.51
-39.56
-44.13
-42.96
-35.79
-23.57
-8.32
7.26
20.50
29.27
32.50
30.25
23.47
13.77
2.87
-7.64
-16.66
-23.66
-28.69
-32.09
-34.32
-35.66
-36.15
-35.71
-34.27
-31.99
-29.34
-26.93
-25.37
-25.11
-26.30
-28.66
-31.47
-33.55
-33.48
-30.09
-22.94
-12.69
-1.04
9.69
17.33
20.46
18.77
12.95
4.26
-5.79
-15.69
-23.88
-28.92
-29.73
-26.00
-18.56
-9.26
-0.53
5.42
7.28
4.97
-0.63
-8.27
-16.84
-25.68
-34.41
-42.59
-49.49
-54.07
-55.39
-52.99
-47.19
-38.98
-29.70
-20.61
-12.55
-5.93
-0.96
2.15
3.10
1.67
-1.86
-6.43
-10.36
-11.77
-9.43
-3.26
5.34
14.17
20.87
23.80
22.46
17.34
9.50
0.11
-9.77
-19.21
-27.23
-32.81
-35.15
-33.93
-29.56
-23.18
-16.38
-10.70
-7.26
-6.40
-7.63
-9.93
-12.04
-12.99
-12.27
-9.90
-6.22
-1.70
3.30
8.52
13.64
18.34
22.12
24.58
25.47
24.81
22.81
19.73
15.82
11.19
5.99
0.49
-4.90
-9.56
-12.80
-14.17
-13.49
-11.00
-7.39
-3.48
-0.14
1.98
2.61
1.69
-0.42
-3.21
-5.85
-7.42
-7.11
-4.41
0.50
6.94
13.67
19.46
23.35
24.90
24.12
21.33
16.96
11.44
5.28
-0.88
-6.32
-10.44
-12.90
-13.80
-13.58
-12.78
-11.89
-11.12
-10.53
-10.11
-9.98
-10.42
-11.75
-14.19
-17.62
-21.57
-25.26
-27.78
-28.32
-26.37
-21.86
-15.13
-6.94
1.73
9.80
16.36
20.72
22.58
22.04
19.62
16.11
12.41
9.36
7.46
6.86
7.33
8.40
9.51
10.19
10.16
9.26
7.59
5.42
3.18
1.35
0.38
0.44
1.34
2.52
3.25
2.90
1.17
-1.78
-5.48
-9.23
-12.32
-14.19
-14.48
-13.22
-10.81
-7.98
-5.67
-4.64
-5.19
-7.10
-9.68
-12.13
-13.91
-14.97
-15.71
-16.84
-18.97
-22.50
-27.47
-33.60
-40.38
-47.19
-53.40
-58.53
-62.37
-65.16
-67.52
-70.21
-73.76
-78.08
-82.39
-85.36
-85.68
-82.53
-75.91
-66.60
-55.85
-44.81
-34.31
-24.65
-15.65
-6.69
3.16
14.89
29.08
45.49
62.74
78.50
90.26
96.15
95.64
89.66
80.08
68.98
58.10
48.67
41.62
37.82
37.97
42.25
49.87
58.91
66.86
71.26
70.70
65.22
56.14
45.42
34.77
25.12
16.50
8.50
0.85
-6.22
-11.92
-15.21
-15.42
-12.50
-7.18
-0.81
5.01
8.87
9.75
7.32
1.88
-5.73
-14.39
-22.95
-30.48
-36.33
-40.19
-42.04
-42.08
-40.82
-38.84
-36.77
-34.95
-33.38
-31.64
-29.14
-25.46
-20.53
-14.72
-8.60
-2.67
2.99
8.67
14.96
22.31
30.68
39.42
47.23
52.62
54.27
51.58
44.73
34.71
22.89
10.68
-0.72
-10.40
-17.66
-22.03
-23.34
-21.82
-18.27
-13.85
-9.83
-7.21
-6.42
-7.27
-9.12
-11.24
-13.00
-13.98
-13.88
-12.44
-9.36
-4.46
2.06
9.55
16.84
22.57
25.66
25.69
23.02
18.60
13.50
8.57
4.24
0.61
-2.30
-4.43
-5.63
-5.84
-5.22
-4.16
-3.14
-2.59
-2.75
-3.76
-5.69
-8.61
-12.54
-17.28
-22.29
-26.66
-29.29
-29.17
-25.69
-18.96
-9.77
0.58
10.69
19.46
26.21
30.81
33.40
34.26
33.56
31.52
28.40
24.71
21.12
18.28
16.49
15.59
15.03
14.06
12.21
9.42
6.11
2.89
0.14
-2.17
-4.56
-7.70
-11.97
-17.13
-22.34
-26.42
-28.31
-27.56
-24.40
-19.72
-14.67
-10.39
-7.65
-6.83
-7.85
-10.22
-13.18
-15.84
-17.30
-16.92
-14.47
-10.24
-5.00
0.22
4.42
6.85
7.25
5.76
2.87
-0.84
-4.77
-8.41
-11.30
-13.07
-13.61
-13.05
-11.78
-10.33
-9.09
-8.11
-7.12
-5.68
-3.39
-0.19
3.79
8.38
13.48
19.08
25.07
30.95
35.83
38.65
38.61
35.47
29.77
22.45
14.62
7.16
0.58
-4.94
-9.48
-13.19
-16.26
-18.90
-21.28
-23.50
-25.60
-27.55
-29.42
-31.34
-33.39
-35.52
-37.32
-38.17
-37.38
-34.49
-29.46
-22.76
-15.06
-7.11
0.54
7.55
13.68
18.67
22.12
23.70
23.30
21.23
18.21
15.12
12.67
11.18
10.46
9.98
9.26
8.03
6.37
4.53
2.83
1.57
0.98
1.29
2.50
4.31
6.01
6.71
5.69
2.92
-0.87
-4.36
-6.18
-5.47
-2.08
3.44
10.30
17.81
25.56
33.35
40.96
47.96
53.72
57.55
58.81
57.12
52.43
45.00
35.33
24.19
12.48
1.30
-8.23
-15.04
-18.40
-18.11
-14.76
-9.72
-4.86
-2.13
-2.90
-7.58
-15.40
-24.68
-33.32
-39.44
-41.86
-40.23
-34.91
-26.69
-16.51
-5.36
5.71
15.63
23.33
27.99
29.32
27.74
24.22
20.05
16.28
13.51
11.80
10.87
10.38
10.24
10.59
11.72
13.79
16.62
19.64
21.96
22.62
20.89
16.56
10.06
2.48
-4.65
-9.66
-11.31
-9.02
-3.12
5.25
14.52
23.08
29.63
33.43
34.16
31.84
26.66
18.89
9.06
-2.00
-13.07
-22.65
-29.33
-32.27
-31.45
-27.80
-22.80
-18.06
-14.73
-13.27
-13.53
-15.00
-17.37
-20.61
-24.91
-30.37
-36.64
-42.75
-47.26
-48.62
-45.67
-38.05
-26.33
-11.91
3.27
17.22
28.23
35.14
37.58
35.82
30.66
23.17
14.48
5.73
-2.03
-7.89
-11.22
-11.82
-10.09
-6.89
-3.41
-0.73
0.48
0.09
-1.65
-4.27
-7.40
-10.98
-15.13
-19.98
-25.37
-30.65
-34.67
-36.07
-33.69
-27.07
-16.76
-4.22
8.56
19.66
27.74
32.14
32.83
30.19
24.84
17.71
10.09
3.52
-0.57
-1.38
0.80
4.67
8.42
10.39
9.70
6.48
1.42
-4.64
-11.18
-17.92
-24.57
-30.56
-35.01
-37.05
-36.20
-32.72
-27.41
-21.29
-15.09
-9.08
-3.15
2.81
8.56
13.49
16.78
17.82
16.62
13.78
10.35
7.32
5.27
4.26
3.92
3.73
3.35
2.70
1.94
1.30
0.91
0.74
0.63
0.45
0.14
-0.22
-0.47
-0.51
-0.32
0.01
0.33
0.49
0.43
0.21
-0.07
-0.27
-0.31
-0.17
0.07
0.29
0.42
0.41
0.29
0.13
0.02
-0.01
0.05
0.16
0.26
0.32
0.33
0.30
0.26
0.24
0.26
0.32
0.40
0.46
0.52
0.55
0.56
0.56
0.56
0.56
0.57
0.57
0.58
0.58
0.59
0.59
0.59
0.59
0.58
0.58
0.58
0.57
0.57
0.57
0.57
0.56
0.56
0.56
0.56
0.56
0.55
0.55
0.55
0.55
0.54
0.54
0.54
0.54
0.54
0.53
0.53
0.53
0.53
0.52
0.52
0.52
0.52
0.52
0.51
0.51
0.51
0.51
0.50
0.50
0.50
0.50
0.50
0.49
0.49
0.49
0.49
0.49
0.48
0.48
0.48
0.48
0.47
0.47
0.47
0.47
0.47
0.47
0.46
0.46
0.46
0.46
0.46
0.45
0.45
0.45
0.45
0.45
0.45
0.44
0.44
0.44
0.44
0.44
0.44
0.43
0.43
0.43
0.43
0.42
0.42
0.42
0.42
0.42
0.42
0.42
0.41
0.41
0.41
0.41
0.41
0.40
0.40
0.40
0.40
0.40
0.40
0.40
0.39
0.39
0.39
0.39
0.39
0.39
0.38
0.38
0.38
0.38
0.38
0.38
0.37
0.37
0.37
0.37
0.37
0.37
0.37
0.36
0.36
0.36
0.36
0.36
0.36
0.35
0.35
0.35
0.35
0.35
0.35
0.35
0.34
0.34
0.33
0.33
0.33
0.35
0.38
0.41
0.44
0.46
0.46
0.46
0.45
0.45
0.45
0.45
0.45
0.43
0.41
0.38
0.36
0.36
0.37
0.41
0.45
0.48
0.48
0.45
0.41
0.37
0.37
0.43
0.55
0.71
0.87
0.98
1.02
1.00
0.97
0.98
1.09
1.28
1.52
1.71
1.80
1.78
1.68
1.60
1.63
1.81
2.10
2.40
2.59
2.58
2.43
2.23
2.10
2.09
2.17
2.25
2.34
2.54
3.01
3.80
4.63
4.96
4.07
1.47
-2.79
-8.09
-13.46
-17.97
-21.00
-22.32
-21.84
-19.47
-15.16
-9.02
-1.62
5.91
12.24
16.34
17.97
17.81
17.19
17.45
19.33
22.68
26.64
30.02
31.86
31.74
29.70
26.12
21.39
15.69
9.08
1.63
-6.38
-14.38
-21.53
-27.05
-30.39
-31.48
-30.68
-28.71
-26.44
-24.60
-23.68
-23.82
-24.90
-26.53
-28.26
-29.54
-29.68
-27.88
-23.19
-14.84
-2.63
12.69
29.32
44.75
56.41
62.48
62.35
56.73
47.16
35.36
22.81
10.58
-0.49
-9.64
-16.07
-19.18
-18.79
-15.39
-10.07
-4.29
0.50
3.26
3.40
0.75
-4.61
-12.50
-22.48
-33.53
-43.84
-50.95
-52.30
-46.20
-32.63
-13.51
7.73
27.18
41.64
49.39
50.29
45.36
36.18
24.48
12.06
0.80
-7.41
-11.11
-9.77
-4.11
3.98
12.00
17.67
19.60
17.52
12.10
4.44
-4.25
-12.94
-20.72
-26.74
-30.38
-31.38
-30.02
-27.13
-23.69
-20.49
-17.87
-15.71
-13.70
-11.62
-9.46
-7.20
-4.63
-1.19
3.78
10.55
18.61
26.70
33.11
36.37
35.79
31.64
25.03
17.38
10.06
4.13
0.23
-1.37
-0.64
2.15
6.50
11.62
16.59
20.43
22.33
21.72
18.42
12.56
4.63
-4.57
-13.94
-22.20
-27.89
-29.78
-27.11
-19.96
-9.35
2.94
14.79
24.33
30.28
32.21
30.39
25.60
18.90
11.47
4.53
-0.88
-4.00
-4.50
-2.66
0.80
4.83
8.39
10.63
10.99
9.21
5.28
-0.54
-7.72
-15.49
-22.83
-28.81
-32.72
-34.33
-33.87
-31.94
-29.25
-26.27
-23.27
-20.26
-17.31
-14.74
-13.09
-12.86
-13.93
-15.34
-15.29
-11.81
-3.69
8.67
23.18
36.64
45.93
49.19
46.30
38.69
28.40
17.26
6.27
-4.10
-13.45
-21.02
-25.66
-26.48
-23.38
-17.39
-10.48
-4.94
-2.48
-3.86
-8.82
-16.55
-26.04
-36.26
-45.99
-53.58
-57.15
-54.89
-45.99
-31.02
-12.04
8.01
26.11
39.97
48.37
51.05
48.29
40.71
29.13
14.90
-0.11
-13.55
-23.14
-27.32
-25.71
-19.22
-9.69
0.67
9.94
16.82
20.74
21.62
19.61
14.94
7.78
-1.68
-13.12
-25.78
-38.35
-48.83
-54.88
-54.38
-46.20
-30.84
-10.52
11.34
31.10
45.88
54.21
56.07
52.41
44.57
33.92
21.89
10.16
0.67
-4.71
-4.88
-0.01
8.23
17.11
23.84
26.51
24.65
19.08
11.33
2.80
-5.67
-13.85
-21.71
-29.04
-35.28
-39.68
-41.58
-40.74
-37.46
-32.41
-26.45
-20.42
-15.04
-10.85
-8.17
-6.91
-6.48
-5.75
-3.38
1.82
10.33
21.68
34.46
46.77
56.65
62.61
63.88
60.48
52.94
42.13
29.00
14.53
-0.17
-13.75
-24.52
-30.77
-31.17
-25.47
-14.92
-2.16
9.48
16.98
18.73
14.82
6.83
-3.03
-12.84
-21.62
-29.17
-35.52
-40.23
-41.98
-38.81
-29.08
-12.47
9.30
32.60
52.82
65.96
69.89
64.96
53.50
38.76
23.67
10.07
-1.21
-9.95
-16.02
-19.22
-19.38
-16.87
-12.77
-8.66
-6.24
-6.75
-10.55
-17.29
-26.14
-36.26
-46.94
-57.41
-66.44
-72.22
-72.61
-65.81
-51.37
-30.62
-6.47
17.36
37.58
52.03
60.00
61.83
58.45
50.96
40.65
29.08
18.08
9.47
4.48
3.35
5.21
8.47
11.37
12.63
11.77
9.08
5.25
0.93
-3.55
-8.23
-13.25
-18.63
-24.08
-29.01
-32.60
-33.98
-32.51
-27.78
-19.96
-9.76
1.45
12.00
20.30
25.34
27.09
26.33
24.36
22.27
20.55
19.05
17.23
14.72
11.54
8.11
4.89
2.01
-0.88
-4.45
-9.23
-15.27
-21.90
-27.98
-32.37
-34.36
-33.98
-31.89
-29.09
-26.52
-24.81
-24.09
-24.09
-24.27
-24.01
-22.82
-20.34
-16.36
-10.70
-3.24
6.11
17.06
28.85
40.21
49.51
55.37
57.07
54.79
49.52
42.59
35.11
27.70
20.58
13.84
7.70
2.70
-0.57
-1.76
-0.93
1.33
4.07
6.23
6.76
4.94
0.49
-6.31
-14.63
-23.05
-29.99
-33.93
-33.93
-29.87
-22.39
-12.83
-2.77
6.32
13.35
17.72
19.37
18.66
16.28
13.10
9.98
7.62
6.41
6.43
7.34
8.62
9.58
9.59
8.27
5.52
1.69
-2.52
-6.20
-8.58
-9.24
-8.35
-6.52
-4.64
-3.52
-3.62
-5.01
-7.36
-10.09
-12.54
-14.08
-14.13
-12.33
-8.65
-3.42
2.62
8.53
13.36
16.47
17.61
16.99
15.18
12.93
10.88
9.39
8.53
8.07
7.69
7.08
6.05
4.57
2.68
0.44
-2.07
-4.81
-7.76
-10.93
-14.38
-18.19
-22.43
-26.97
-31.43
-35.13
-37.15
-36.67
-33.08
-26.33
-16.94
-5.88
5.63
16.35
25.26
31.63
35.03
35.39
32.92
28.18
21.93
15.12
8.62
3.02
-1.52
-5.22
-8.53
-11.88
-15.41
-18.95
-21.93
-23.77
-24.08
-22.88
-20.58
-17.91
-15.62
-14.36
-14.50
-16.04
-18.59
-21.34
-23.21
-23.11
-20.30
-14.68
-6.92
1.77
10.00
16.62
21.05
23.26
23.64
22.65
20.75
18.25
15.48
12.82
10.68
9.47
9.41
10.47
12.22
13.99
15.05
14.86
13.30
10.71
7.79
5.27
3.57
2.59
1.67
-0.20
-3.96
-10.07
-18.18
-27.12
-35.10
-40.12
-40.50
-35.33
-24.74
-9.81
7.54
25.07
40.55
52.10
58.50
59.32
54.90
46.34
35.20
23.30
12.34
3.59
-2.33
-5.48
-6.53
-6.42
-6.08
-6.08
-6.57
-7.31
-7.94
-8.17
-8.09
-8.00
-8.40
-9.74
-12.28
-15.94
-20.28
-24.53
-27.73
-28.97
-27.67
-23.64
-17.21
-9.07
-0.10
8.86
17.03
23.83
28.76
31.51
31.93
30.05
26.16
20.72
14.38
7.92
2.04
-2.76
-6.33
-8.88
-10.91
-12.90
-15.07
-17.29
-19.20
-20.40
-20.72
-20.41
-20.14
-20.84
-23.40
-28.36
-35.65
-44.35
-52.81
-58.86
-60.41
-55.99
-45.29
-29.26
-9.91
10.19
28.47
42.92
52.23
55.92
54.17
47.76
37.87
25.93
13.58
2.37
-6.37
-11.76
-13.59
-12.32
-8.94
-4.68
-0.72
2.21
3.87
4.43
4.26
3.67
2.73
1.23
-1.26
-5.27
-11.19
-18.92
-27.65
-35.68
-40.80
-40.81
-34.38
-21.57
-4.05
15.44
33.84
48.58
58.12
62.00
60.59
54.75
45.52
34.21
22.21
11.01
1.90
-4.36
-7.72
-8.82
-8.78
-8.56
-8.80
-9.42
-9.99
-10.02
-9.35
-8.34
-7.78
-8.47
-11.02
-15.47
-21.35
-27.72
-33.39
-37.06
-37.59
-34.22
-26.79
-15.95
-3.15
9.74
20.82
28.74
33.08
34.32
33.47
31.73
29.97
28.62
27.72
27.14
26.75
26.49
26.26
25.82
24.75
22.56
18.89
13.70
7.43
0.84
-5.12
-9.61
-12.16
-12.77
-11.89
-10.24
-8.58
-7.55
-7.50
-8.45
-10.13
-12.11
-13.97
-15.38
-16.09
-15.85
-14.27
-10.96
-5.60
1.76
10.55
19.69
27.83
33.72
36.54
36.04
32.47
26.42
18.58
9.70
0.63
-7.74
-14.55
-19.15
-21.26
-21.07
-19.09
-16.09
-12.75
-9.57
-6.86
-4.88
-3.88
-4.24
-6.37
-10.51
-16.51
-23.72
-31.00
-36.82
-39.62
-38.21
-32.06
-21.55
-7.93
6.98
21.21
33.01
41.21
45.22
45.03
41.03
33.86
24.49
14.09
4.03
-4.34
-10.06
-12.76
-12.84
-11.27
-9.25
-7.72
-7.17
-7.57
-8.68
-10.27
-12.48
-15.69
-20.32
-26.59
-34.12
-42.01
-48.83
-52.85
-52.47
-46.59
-35.09
-18.99
-0.35
18.19
34.07
45.40
51.32
51.91
47.97
40.58
30.90
20.19
9.84
1.39
-3.81
-4.94
-2.14
3.46
10.02
15.62
18.80
19.04
16.63
12.34
7.03
1.28
-4.49
-9.93
-14.56
-17.90
-19.65
-19.86
-18.99
-17.59
-15.95
-13.97
-11.25
-7.42
-2.52
2.89
7.99
12.04
14.91
17.05
19.22
22.12
25.95
30.38
34.73
38.38
40.93
42.35
42.68
41.96
40.04
36.60
31.44
24.68
16.83
8.82
1.73
-3.60
-6.69
-7.63
-6.98
-5.55
-4.25
-3.83
-4.80
-7.30
-11.08
-15.44
-19.45
-22.08
-22.60
-20.78
-16.99
-12.12
-7.24
-3.29
-0.78
0.19
-0.10
-1.36
-3.42
-6.35
-10.31
-15.35
-21.30
-27.63
-33.56
-38.22
-40.94
-41.41
-39.81
-36.82
-33.46
-30.82
-29.76
-30.82
-34.07
-39.36
-46.49
-55.34
-65.90
-78.08
-91.42
-104.88
-116.93
-125.76
-129.69
-127.63
-119.46
-106.08
-89.32
-71.45
-54.71
-40.85
-30.80
-24.70
-21.94
-21.56
-22.32
-23.05
-22.76
-20.80
-16.88
-11.07
-3.73
4.68
13.72
23.05
32.36
41.40
49.75
57.01
62.75
66.77
69.09
70.03
70.12
69.86
69.57
69.28
68.84
68.05
66.88
65.50
64.23
63.31
62.78
62.31
61.44
59.70
56.97
53.53
49.99
46.96
44.81
43.53
42.82
42.31
41.77
41.17
40.57
39.91
38.80
36.64
32.91
27.36
20.21
12.21
4.30
-2.66
-8.14
-12.04
-14.59
-16.19
-17.22
-17.85
-17.93
-17.10
-14.93
-11.08
-5.49
1.49
9.17
16.59
22.73
26.76
28.19
27.07
23.93
19.62
15.06
11.02
8.04
6.47
6.49
8.21
11.51
15.94
20.63
24.44
26.32
25.62
22.30
16.89
10.18
2.96
-4.25
-11.15
-17.63
-23.64
-29.13
-33.92
-37.57
-39.41
-38.46
-33.77
-24.68
-11.33
5.26
23.16
39.97
53.47
62.04
65.00
62.47
55.28
44.56
31.64
17.93
4.80
-6.47
-14.99
-20.43
-23.10
-23.82
-23.55
-22.97
-22.21
-20.91
-18.42
-14.31
-8.56
-1.78
5.03
10.69
14.18
14.82
12.35
6.94
-0.87
-10.15
-19.54
-27.34
-31.78
-31.30
-25.06
-13.41
2.16
19.09
34.42
45.52
50.74
49.72
43.29
32.96
20.49
7.43
-4.95
-15.70
-24.04
-29.47
-31.93
-31.91
-30.40
-28.73
-28.07
-29.05
-31.69
-35.42
-39.52
-43.36
-46.71
-49.61
-52.30
-54.89
-57.21
-58.74
-58.76
-56.46
-51.32
-43.18
-32.33
-19.49
-5.60
8.25
20.93
31.46
39.08
43.49
44.90
44.09
42.18
40.29
39.32
39.58
40.81
42.44
43.75
44.16
43.40
41.35
38.06
33.70
28.54
23.09
18.07
14.35
12.73
13.55
16.49
20.50
23.88
24.83
21.86
14.39
2.98
-10.72
-24.34
-35.46
-42.08
-42.99
-37.88
-27.23
-12.27
5.10
22.50
37.33
47.26
50.80
47.72
38.97
26.36
11.93
-2.50
-15.49
-25.96
-33.08
-36.25
-35.26
-30.44
-22.63
-13.01
-2.68
7.61
17.49
26.85
35.53
42.98
48.23
50.05
47.46
40.13
28.89
15.65
3.09
-6.10
-9.96
-7.71
0.07
11.72
24.88
37.01
45.78
49.47
47.18
39.03
26.12
10.34
-5.99
-20.56
-31.46
-37.50
-38.40
-34.83
-28.28
-20.65
-13.76
-8.95
-6.86
-7.44
-10.23
-14.68
-20.32
-26.93
-34.38
-42.74
-51.98
-61.76
-71.03
-77.92
-79.92
-74.68
-61.03
-39.77
-13.81
12.52
34.84
49.96
56.68
55.66
48.75
38.03
25.34
12.24
0.27
-8.77
-13.17
-11.78
-4.74
6.28
18.41
28.32
33.35
32.28
25.50
14.60
1.63
-11.63
-24.01
-34.81
-43.47
-49.31
-51.57
-49.72
-43.88
-34.84
-23.98
-12.81
-2.61
5.82
12.07
15.87
17.03
15.34
10.85
3.92
-4.59
-13.41
-21.08
-26.20
-27.78
-25.45
-19.65
-11.47
-2.58
5.24
10.45
12.09
9.93
4.45
-3.32
-12.12
-20.69
-27.97
-33.14
-35.74
-35.70
-33.46
-30.02
-26.77
-25.13
-26.10
-29.70
-34.91
-39.96
-42.81
-41.81
-36.14
-25.77
-11.34
6.02
24.83
43.22
58.99
69.93
74.34
71.60
62.50
48.99
33.65
19.13
7.57
0.44
-1.41
2.10
10.27
21.55
33.63
43.94
50.24
51.18
46.67
37.59
25.38
11.49
-2.84
-16.62
-28.78
-37.96
-42.46
-40.70
-31.79
-16.27
3.82
25.17
44.07
57.54
64.00
63.42
56.99
46.39
33.30
19.18
5.56
-5.73
-12.57
-13.20
-6.96
5.04
19.93
33.80
42.91
44.96
39.72
28.84
14.97
0.60
-12.64
-24.17
-34.02
-42.21
-48.40
-51.97
-52.46
-50.01
-45.45
-39.91
-34.32
-28.96
-23.53
-17.62
-11.24
-5.17
-0.69
0.89
-0.93
-5.47
-10.87
-14.63
-14.55
-9.63
-0.56
10.43
20.43
26.86
28.47
25.51
19.44
12.10
4.99
-1.05
-5.76
-8.99
-10.72
-10.93
-9.97
-8.63
-8.15
-9.71
-14.07
-21.36
-31.06
-42.27
-53.92
-64.77
-73.39
-78.07
-77.02
-68.90
-53.54
-32.34
-8.29
14.84
33.56
45.61
50.46
48.98
42.78
33.51
22.54
11.09
0.48
-7.66
-11.85
-11.24
-6.17
1.69
9.88
15.95
18.26
16.39
11.04
3.54
-4.75
-12.83
-20.01
-25.80
-29.67
-31.13
-29.93
-26.30
-21.00
-15.10
-9.59
-5.00
-1.39
1.44
3.55
4.68
4.33
2.15
-1.66
-6.10
-9.59
-10.48
-7.66
-1.02
8.48
19.08
28.74
35.74
39.12
38.66
34.78
28.13
19.38
9.10
-1.99
-12.87
-22.03
-27.90
-29.29
-25.96
-18.97
-10.44
-2.99
1.08
0.50
-4.78
-13.64
-24.25
-34.59
-42.82
-47.48
-47.45
-41.99
-30.79
-14.33
5.94
27.57
47.43
62.46
70.47
70.69
63.93
52.08
37.46
22.26
8.26
-3.11
-10.63
-13.46
-11.25
-4.53
5.36
16.55
27.04
35.19
39.86
40.55
37.18
30.09
19.89
7.46
-6.03
-19.18
-30.34
-37.71
-39.66
-35.27
-24.91
-10.45
5.07
18.33
26.89
29.81
27.67
22.05
14.61
6.55
-1.39
-8.79
-15.08
-19.54
-21.48
-20.60
-17.22
-12.20
-6.86
-2.47
-0.01
0.05
-2.12
-5.96
-10.75
-15.92
-21.14
-26.39
-31.61
-36.50
-40.54
-42.99
-43.33
-41.40
-37.52
-32.28
-26.32
-20.11
-13.93
-7.98
-2.51
2.22
6.08
9.19
12.04
15.26
19.35
24.37
29.76
34.47
37.29
37.24
33.94
27.66
19.15
9.30
-1.06
-11.32
-20.86
-28.72
-33.59
-34.17
-29.67
-20.60
-8.90
2.38
10.04
11.72
6.70
-4.02
-18.23
-33.18
-46.22
-55.08
-57.96
-53.65
-41.82
-23.44
-0.93
22.14
41.94
55.37
60.99
59.13
51.37
39.70
25.78
10.66
-4.98
-20.17
-33.29
-41.94
-43.49
-35.96
-18.89
6.01
34.98
62.99
85.00
97.29
98.41
89.26
72.46
51.26
28.56
6.44
-13.70
-30.64
-42.92
-48.85
-47.17
-37.79
-22.37
-4.11
13.10
26.08
33.27
34.99
32.85
28.71
23.71
17.95
10.88
2.04
-8.12
-18.18
-26.20
-30.55
-30.61
-27.08
-21.60
-16.09
-11.96
-9.81
-9.37
-10.00
-11.13
-12.60
-14.72
-18.01
-22.85
-29.18
-36.47
-43.79
-50.14
-54.61
-56.44
-55.13
-50.38
-42.12
-30.77
-17.28
-3.18
9.65
19.55
25.36
26.82
24.46
19.36
12.83
6.13
0.41
-3.41
-4.69
-3.17
0.87
6.56
12.55
17.31
19.49
18.34
13.86
6.86
-1.26
-8.82
-14.26
-16.55
-15.59
-12.31
-8.53
-6.33
-7.37
-12.15
-19.91
-28.83
-36.86
-42.43
-44.74
-43.77
-39.72
-32.82
-23.13
-10.95
2.91
17.00
29.47
38.55
43.05
42.66
37.83
29.57
19.05
7.44
-4.15
-14.54
-22.43
-26.52
-25.81
-20.04
-9.99
2.47
14.75
24.10
28.33
26.37
18.36
5.56
-10.03
-26.07
-40.29
-50.67
-55.58
-53.95
-45.46
-30.55
-10.62
12.16
35.09
55.33
70.46
78.86
79.95
74.23
63.02
48.13
31.47
14.78
-0.37
-12.55
-20.45
-23.02
-19.79
-11.17
1.39
15.59
28.85
38.84
44.03
43.84
38.53
29.04
16.86
3.85
-7.83
-15.99
-18.88
-15.72
-6.98
5.62
19.54
32.03
40.86
44.71
43.42
37.83
29.37
19.74
10.59
3.28
-1.25
-2.58
-0.96
2.77
7.22
10.76
11.95
9.88
4.46
-3.61
-13.06
-22.43
-30.48
-36.34
-39.73
-40.84
-40.28
-38.89
-37.53
-36.86
-37.09
-37.98
-38.84
-38.88
-37.28
-33.45
-27.03
-17.77
-5.58
9.42
26.69
45.08
62.71
77.24
86.36
88.49
83.29
71.77
56.02
38.51
21.40
6.11
-6.67
-16.68
-23.87
-28.25
-30.01
-29.72
-28.35
-27.04
-26.87
-28.51
-32.13
-37.48
-43.98
-50.77
-56.79
-60.82
-61.69
-58.52
-50.90
-38.99
-23.44
-5.23
14.30
33.55
50.63
63.62
70.95
71.93
67.02
57.87
46.88
36.53
28.71
24.26
22.85
23.31
24.06
23.72
21.37
16.92
10.81
3.90
-2.86
-8.79
-13.54
-17.13
-19.76
-21.64
-22.81
-23.07
-22.08
-19.55
-15.37
-9.83
-3.53
2.70
8.03
11.92
14.23
15.32
15.92
16.90
18.88
22.07
26.12
30.23
33.43
34.88
34.05
30.83
25.46
18.40
10.26
1.73
-6.40
-13.12
-17.40
-18.43
-15.93
-10.50
-3.49
3.20
7.66
8.52
5.33
-1.47
-10.80
-21.21
-31.27
-39.63
-45.05
-46.35
-42.68
-33.74
-20.20
-3.82
12.91
27.40
37.66
42.84
43.23
39.87
33.97
26.44
17.89
8.87
0.12
-7.21
-11.92
-13.12
-10.68
-5.37
1.40
8.02
13.21
16.29
17.27
16.53
14.54
11.58
7.49
1.94
-5.55
-15.07
-26.20
-37.75
-47.76
-53.89
-53.95
-46.65
-32.24
-12.65
8.91
28.82
44.07
53.00
55.40
52.22
44.83
34.63
22.72
10.09
-2.20
-12.97
-20.95
-25.15
-25.13
-21.23
-14.46
-6.41
1.14
6.69
9.28
8.78
5.71
0.97
-4.60
-10.54
-16.86
-23.82
-31.56
-39.88
-48.07
-54.97
-59.23
-59.45
-54.37
-43.25
-26.09
-3.98
20.91
45.57
66.79
81.93
89.44
89.11
81.89
69.51
54.07
37.79
22.77
10.78
2.95
-0.52
-0.38
1.89
4.62
6.63
7.46
7.39
7.00
6.74
6.66
6.37
5.38
3.21
-0.32
-5.12
-10.79
-16.73
-22.09
-25.95
-27.56
-26.64
-23.56
-19.26
-14.91
-11.47
-9.33
-8.27
-7.80
-7.52
-7.41
-7.79
-9.08
-11.48
-14.75
-18.46
-22.18
-25.61
-28.53
-30.63
-31.29
-29.77
-25.57
-18.76
-10.22
-1.37
6.16
11.05
12.55
10.47
5.05
-3.11
-13.05
-23.47
-32.63
-38.56
-39.52
-34.41
-23.25
-7.35
10.89
28.52
42.70
51.47
54.04
50.79
43.10
32.79
21.85
12.09
4.95
1.29
1.25
4.18
8.82
13.66
17.28
18.62
17.25
13.22
7.04
-0.54
-8.72
-16.79
-24.23
-30.74
-36.24
-40.68
-43.98
-45.95
-46.34
-44.76
-40.71
-33.65
-23.20
-9.60
6.13
22.01
35.63
44.78
48.20
46.01
39.59
31.06
22.66
16.30
13.19
13.81
17.83
24.09
30.89
36.32
38.87
37.76
33.10
25.60
16.20
5.77
-4.96
-15.26
-24.21
-30.85
-34.48
-35.05
-33.29
-30.48
-27.88
-26.36
-25.87
-25.75
-25.00
-22.85
-19.12
-14.30
-9.41
-5.58
-3.68
-3.93
-5.75
-7.95
-9.02
-7.79
-3.84
2.20
8.98
14.86
18.64
19.85
18.75
15.91
11.75
6.27
-0.82
-9.59
-19.61
-29.63
-38.01
-43.21
-44.36
-41.59
-35.96
-29.00
-22.22
-16.65
-12.77
-10.51
-9.60
-9.76
-10.82
-12.75
-15.47
-18.70
-21.80
-23.76
-23.39
-19.67
-12.12
-1.13
12.02
25.45
37.22
45.80
50.46
51.21
48.53
43.11
35.53
26.28
15.88
5.02
-5.40
-14.20
-20.25
-22.67
-21.23
-16.36
-9.23
-1.26
6.15
12.09
16.21
18.58
19.58
19.62
19.03
18.03
16.82
15.59
14.54
14.01
14.42
16.18
19.57
24.37
29.84
34.79
37.95
38.41
36.03
31.32
25.24
18.70
12.10
5.36
-1.87
-9.84
-18.32
-26.52
-33.36
-37.76
-39.15
-37.63
-33.98
-29.39
-25.18
-22.37
-21.48
-22.47
-24.77
-27.51
-29.68
-30.42
-29.06
-25.27
-19.06
-10.87
-1.57
7.69
15.69
21.41
24.26
24.19
21.57
17.06
11.34
5.02
-1.41
-7.54
-12.93
-17.15
-19.81
-20.58
-19.25
-15.76
-10.36
-3.66
3.44
9.76
14.12
15.65
14.02
9.63
3.54
-2.72
-7.47
-9.20
-6.85
0.06
11.13
25.16
40.12
53.54
63.04
66.92
64.70
57.11
45.83
32.87
19.96
8.29
-1.55
-9.31
-14.96
-18.59
-20.52
-21.30
-21.55
-21.80
-22.22
-22.74
-23.17
-23.56
-24.26
-25.90
-29.07
-33.93
-40.13
-46.59
-51.79
-53.97
-51.53
-43.49
-29.87
-11.84
8.42
28.21
44.94
56.72
62.69
62.96
58.38
50.18
39.79
28.67
18.26
9.76
3.91
0.83
-0.04
0.35
1.00
1.22
0.69
-0.57
-2.53
-5.33
-9.27
-14.67
-21.48
-29.11
-36.55
-42.59
-46.20
-46.78
-44.27
-39.00
-31.61
-22.92
-13.87
-5.55
1.08
5.31
7.05
6.81
5.56
4.32
3.77
4.06
4.83
5.52
5.56
4.61
2.52
-0.78
-5.28
-10.85
-17.12
-23.46
-28.95
-32.70
-34.02
-32.82
-29.59
-25.47
-21.87
-20.19
-21.49
-26.12
-33.71
-43.11
-52.65
-60.33
-64.11
-62.17
-53.33
-37.44
-15.61
9.63
34.83
56.32
71.09
77.55
75.73
66.98
53.39
37.08
19.91
3.43
-10.73
-20.83
-25.23
-22.90
-14.09
-0.55
14.82
28.75
38.62
43.11
42.31
37.33
29.64
20.40
10.22
-0.69
-12.16
-23.53
-33.55
-40.57
-43.07
-40.20
-32.26
-20.65
-7.46
5.11
15.36
22.39
25.95
26.19
23.55
18.64
12.42
6.22
1.54
-0.33
1.22
5.81
12.08
18.10
21.99
22.43
19.02
12.18
3.00
-7.12
-16.76
-24.60
-29.50
-30.66
-27.79
-21.36
-12.62
-3.28
4.86
10.57
13.56
14.35
14.07
13.70
13.89
14.69
15.90
17.35
19.24
22.09
26.33
32.02
38.45
44.29
47.96
48.23
44.66
37.79
28.74
18.74
8.62
-1.28
-10.84
-19.68
-26.77
-30.74
-30.36
-25.31
-16.64
-6.51
2.50
8.32
9.92
7.44
1.83
-5.75
-14.30
-23.05
-31.33
-38.29
-42.76
-43.41
-39.09
-29.25
-14.31
4.17
23.65
41.24
54.30
61.14
61.33
55.60
45.44
32.64
18.94
5.93
-4.96
-12.56
-16.16
-15.79
-12.27
-7.10
-1.98
1.60
2.77
1.33
-2.33
-7.58
-13.73
-20.30
-26.95
-33.46
-39.48
-44.36
-47.12
-46.59
-41.86
-32.70
-19.91
-5.24
9.11
21.12
29.64
34.55
36.71
37.32
37.50
37.82
38.27
38.45
37.87
36.24
33.54
29.97
25.79
21.20
16.33
11.31
6.41
2.00
-1.48
-3.73
-4.82
-5.15
-5.33
-5.95
-7.46
-10.14
-14.08
-19.29
-25.52
-32.15
-38.08
-41.88
-42.24
-38.40
-30.55
-19.78
-7.70
4.02
14.19
22.18
27.78
30.93
31.61
29.82
25.79
20.14
13.80
7.85
3.06
-0.26
-2.35
-3.77
-5.08
-6.60
-8.42
-10.41
-12.49
-14.62
-16.84
-19.12
-21.32
-23.26
-24.74
-25.78
-26.61
-27.61
-29.17
-31.40
-34.05
-36.42
-37.51
-36.23
-31.71
-23.61
-12.26
1.27
15.38
28.38
38.78
45.64
48.61
47.90
44.04
37.82
30.14
22.03
14.53
8.55
4.62
2.70
2.27
2.42
2.35
1.52
-0.22
-2.70
-5.67
-8.93
-12.31
-15.55
-18.35
-20.21
-20.80
-20.13
-18.61
-16.90
-15.58
-14.81
-14.20
-13.01
-10.52
-6.46
-1.05
5.23
11.88
18.69
25.63
32.63
39.24
44.66
47.87
48.09
45.12
39.43
31.89
23.53
15.15
7.22
0.07
-5.99
-10.50
-12.98
-13.07
-10.82
-6.70
-1.63
3.29
7.02
8.83
8.32
5.40
0.18
-7.17
-16.30
-26.60
-36.93
-45.60
-50.62
-50.30
-43.85
-31.84
-16.14
0.67
16.07
28.33
36.68
41.13
42.11
40.08
35.41
28.47
19.79
10.25
0.99
-6.67
-11.62
-13.17
-11.28
-6.65
-0.54
5.54
10.30
12.96
13.32
11.65
8.41
3.92
-1.67
-8.29
-15.83
-23.87
-31.80
-38.74
-43.75
-45.97
-44.78
-39.96
-31.81
-21.26
-9.70
1.20
9.93
15.46
17.51
16.53
13.50
9.64
6.09
3.77
3.21
4.55
7.52
11.49
15.56
18.70
19.93
18.55
14.36
7.68
-0.64
-9.38
-17.17
-22.76
-25.28
-24.45
-20.79
-15.44
-9.94
-5.81
-4.08
-5.02
-8.17
-12.60
-17.29
-21.50
-24.93
-27.57
-29.47
-30.33
-29.44
-25.79
-18.43
-7.12
7.26
22.78
36.91
47.23
52.21
51.63
46.30
37.72
27.30
16.11
4.81
-6.10
-15.99
-23.90
-28.74
-29.70
-26.56
-20.03
-11.53
-2.83
4.47
9.31
11.26
10.27
6.41
-0.24
-9.55
-21.10
-33.91
-46.23
-55.56
-59.00
-53.88
-38.81
-14.47
15.96
47.33
73.86
91.05
96.97
92.64
81.16
66.15
50.42
35.43
21.72
9.75
0.47
-4.85
-5.43
-1.71
4.52
10.57
13.98
13.46
9.27
2.85
-4.05
-10.27
-15.66
-20.86
-26.65
-33.11
-39.40
-44.04
-45.65
-43.72
-38.86
-32.46
-26.01
-20.41
-15.80
-11.82
-8.10
-4.60
-1.58
0.84
2.93
5.37
8.86
13.60
19.00
23.84
26.75
26.81
23.89
18.60
11.85
4.46
-3.10
-10.83
-18.76
-26.73
-34.12
-39.98
-43.45
-44.12
-42.34
-39.17
-36.01
-34.12
-34.27
-36.72
-41.34
-47.70
-55.01
-62.03
-66.91
-67.66
-62.73
-51.72
-35.71
-16.88
2.19
19.40
33.70
45.06
54.05
61.39
67.56
72.86
77.33
80.70
82.41
81.54
77.07
68.23
54.96
37.92
18.44
-1.91
-21.71
-39.97
-56.03
-69.49
-80.08
-87.67
-92.46
-95.09
-96.59
-98.13
-100.48
-103.62
-106.49
-107.26
-103.90
-95.00
-80.30
-60.90
-38.94
-16.91
3.09
19.95
33.63
44.91
54.86
64.43
74.14
84.03
93.81
102.93
110.64
115.96
117.80
115.18
107.71
95.84
80.99
65.22
50.68
39.08
31.31
27.32
26.37
27.25
28.66
29.40
28.46
25.11
18.92
9.95
-1.12
-12.88
-23.20
-29.63
-30.08
-23.54
-10.65
6.31
24.03
39.15
49.19
53.03
50.93
43.93
33.38
20.53
6.47
-7.75
-20.84
-31.54
-38.78
-42.07
-41.70
-38.61
-34.06
-29.27
-25.11
-21.96
-19.86
-18.67
-18.19
-18.26
-18.68
-19.25
-19.76
-20.04
-20.00
-19.62
-18.92
-17.85
-16.16
-13.46
-9.32
-3.45
4.01
12.54
21.32
29.59
36.92
43.32
49.08
54.39
59.02
62.17
62.76
59.81
52.94
42.56
29.70
15.78
2.18
-10.01
-20.07
-27.56
-32.34
-34.50
-34.39
-32.64
-29.99
-27.18
-24.76
-23.12
-22.53
-23.17
-25.26
-28.81
-33.50
-38.53
-42.63
-44.26
-42.04
-35.17
-23.76
-8.95
7.41
23.13
36.30
45.65
50.82
52.24
50.83
47.77
44.10
40.64
37.89
36.02
34.94
34.28
33.54
32.18
29.78
26.13
21.31
15.58
9.39
3.30
-2.14
-6.45
-9.39
-11.04
-11.82
-12.45
-13.69
-16.18
-20.30
-26.08
-33.28
-41.31
-49.16
-55.42
-58.42
-56.64
-49.27
-36.63
-20.22
-2.39
14.40
28.14
37.72
42.91
44.10
42.01
37.46
31.37
24.72
18.50
13.57
10.45
9.11
9.11
9.71
10.18
10.08
9.29
7.92
6.13
4.01
1.59
-1.11
-3.94
-6.58
-8.62
-9.86
-10.45
-10.98
-12.34
-15.36
-20.39
-27.00
-33.90
-39.34
-41.58
-39.60
-33.41
-24.09
-13.38
-3.14
5.21
10.90
13.85
14.44
13.25
10.85
7.71
4.22
0.71
-2.46
-4.92
-6.26
-6.17
-4.42
-0.98
3.96
10.06
16.83
23.70
29.96
34.79
37.41
37.13
33.61
26.97
17.75
6.77
-5.03
-16.66
-26.97
-34.64
-38.30
-36.78
-29.60
-17.41
-1.97
14.16
28.34
38.57
43.91
44.55
41.48
36.16
30.12
24.66
20.69
18.60
18.22
18.92
19.83
20.13
19.36
17.35
14.26
10.28
5.62
0.46
-4.91
-10.06
-14.49
-17.76
-19.69
-20.36
-20.08
-19.16
-17.85
-16.40
-15.05
-14.16
-13.98
-14.55
-15.56
-16.32
-16.02
-13.92
-9.65
-3.15
5.20
14.68
24.10
31.90
36.38
36.22
30.99
21.44
9.36
-3.06
-13.91
-22.11
-27.47
-30.35
-31.35
-31.05
-30.11
-29.21
-29.14
-30.45
-33.20
-36.88
-40.52
-43.19
-44.35
-44.11
-42.99
-41.80
-41.16
-41.48
-42.74
-44.49
-45.91
-45.79
-42.89
-36.25
-25.60
-11.54
4.57
21.00
36.10
48.78
58.48
65.11
68.71
69.29
66.89
61.65
54.07
45.06
35.76
27.21
20.07
14.48
10.23
6.90
4.17
1.80
-0.33
-2.43
-4.69
-7.29
-10.32
-13.63
-16.99
-20.11
-22.78
-24.86
-26.34
-27.31
-27.98
-28.72
-29.77
-31.07
-32.06
-31.72
-29.03
-23.42
-15.14
-5.24
4.88
14.02
21.66
27.93
33.23
37.88
41.78
44.53
45.70
45.13
43.05
39.83
35.83
31.23
26.11
20.66
15.33
10.85
7.89
6.93
7.79
9.90
12.41
14.63
16.18
17.01
17.13
16.37
14.23
10.11
3.58
-5.15
-15.02
-24.09
-29.82
-29.68
-21.77
-5.58
17.53
44.36
70.43
91.09
102.81
104.01
95.33
79.17
58.71
37.07
16.68
-0.76
-14.20
-23.01
-27.07
-26.78
-23.19
-17.88
-12.63
-9.05
-8.10
-9.94
-14.08
-19.49
-25.16
-30.29
-34.47
-37.61
-39.81
-41.20
-41.92
-42.10
-41.86
-41.25
-40.15
-38.32
-35.53
-31.73
-27.21
-22.54
-18.39
-15.10
-12.63
-10.57
-8.38
-5.67
-2.45
0.99
4.21
6.79
8.50
9.17
8.66
6.84
3.44
-1.68
-8.32
-15.80
-23.02
-28.66
-31.58
-31.15
-27.46
-21.29
-13.90
-6.73
-1.17
1.77
1.50
-2.15
-8.88
-17.92
-28.17
-38.26
-46.58
-51.61
-52.04
-47.09
-36.77
-21.97
-4.31
14.18
31.33
45.24
54.48
58.24
56.45
49.71
39.17
26.29
12.51
-0.93
-13.03
-22.95
-29.90
-33.25
-32.69
-28.41
-21.31
-12.80
-4.45
2.36
6.68
8.14
6.77
2.76
-3.55
-11.91
-22.03
-33.38
-45.01
-55.35
-62.26
-63.41
-57.08
-42.86
-22.12
2.15
26.13
46.10
59.50
65.35
64.21
57.56
47.18
34.68
21.26
7.92
-4.35
-14.44
-21.22
-23.78
-21.90
-16.10
-7.58
2.11
11.57
19.78
26.13
30.39
32.43
32.11
29.24
23.66
15.37
4.65
-7.83
-20.91
-32.94
-41.94
-46.00
-43.80
-35.09
-21.07
-4.19
12.45
25.85
34.04
36.43
33.82
27.77
19.89
11.23
2.14
-7.42
-17.33
-26.86
-34.66
-39.18
-39.30
-34.84
-26.65
-16.36
-5.81
3.40
10.22
14.24
15.46
14.17
10.73
5.50
-1.28
-9.45
-18.86
-29.19
-39.80
-49.52
-56.67
-59.30
-55.67
-44.87
-27.33
-4.96
19.13
41.35
58.54
68.63
71.05
66.50
56.49
42.79
27.24
11.61
-2.41
-13.25
-19.85
-21.87
-19.90
-15.29
-9.70
-4.58
-0.77
1.60
2.84
3.33
3.21
2.15
-0.49
-5.44
-13.04
-22.92
-33.76
-43.42
-49.47
-49.71
-43.01
-29.66
-11.53
8.45
26.96
41.19
49.50
51.60
48.31
41.10
31.54
20.97
10.49
1.00
-6.63
-11.63
-13.49
-12.09
-7.81
-1.47
5.83
12.90
18.62
22.11
22.78
20.43
15.25
7.65
-1.81
-12.51
-23.65
-34.13
-42.47
-46.92
-45.88
-38.46
-25.12
-7.77
10.65
26.92
38.54
44.36
44.66
40.78
34.34
26.77
19.00
11.62
5.02
-0.32
-3.97
-5.60
-5.23
-3.31
-0.70
1.67
2.93
2.61
0.69
-2.55
-6.72
-11.59
-17.17
-23.61
-30.91
-38.66
-45.80
-50.75
-51.72
-47.44
-37.60
-23.27
-6.74
9.17
21.82
29.60
32.17
30.23
25.07
18.02
10.20
2.56
-3.96
-8.44
-10.12
-8.70
-4.51
1.50
8.01
13.71
17.64
19.38
19.05
17.07
13.98
10.05
5.33
-0.38
-7.26
-15.24
-23.79
-31.96
-38.54
-42.27
-42.19
-37.82
-29.34
-17.72
-4.49
8.34
18.81
25.46
27.60
25.38
19.75
12.07
3.87
-3.30
-8.11
-9.46
-6.72
0.13
10.18
21.67
32.30
39.84
42.83
40.96
35.06
26.70
17.54
8.76
0.90
-6.01
-12.13
-17.48
-21.78
-24.59
-25.36
-23.67
-19.38
-12.74
-4.46
4.34
12.35
18.36
21.62
21.97
19.77
15.74
10.56
4.86
-0.86
-6.04
-10.05
-12.05
-11.30
-7.31
-0.19
9.27
19.67
29.13
35.92
38.85
37.62
32.81
25.60
17.30
8.96
1.21
-5.71
-11.75
-17.00
-21.61
-25.77
-29.60
-32.95
-35.33
-35.98
-34.22
-29.78
-23.11
-15.17
-7.10
0.24
6.54
11.97
16.85
21.35
25.27
28.06
29.18
28.28
25.42
21.04
15.75
10.10
4.41
-1.09
-6.31
-11.03
-14.85
-17.36
-18.21
-17.38
-15.25
-12.54
-10.15
-9.04
-9.98
-13.49
-19.62
-27.84
-36.90
-44.97
-49.89
-49.67
-43.11
-30.23
-12.41
7.79
27.32
43.30
53.75
57.91
56.20
49.88
40.64
30.20
20.05
11.37
5.06
1.56
0.83
2.28
4.84
7.27
8.45
7.74
5.06
0.84
-4.25
-9.53
-14.52
-18.97
-22.87
-26.32
-29.43
-32.40
-35.33
-38.31
-41.23
-43.71
-45.05
-44.42
-41.07
-34.64
-25.32
-13.78
-0.97
12.22
25.09
37.23
48.30
57.83
65.09
69.14
69.17
64.77
56.22
44.49
31.11
17.78
6.00
-3.13
-9.17
-12.14
-12.48
-10.84
-7.98
-4.73
-1.91
-0.28
-0.30
-2.18
-5.72
-10.52
-16.15
-22.49
-29.70
-38.10
-47.64
-57.48
-65.81
-70.14
-68.01
-57.84
-39.59
-14.92
13.17
41.11
65.56
84.00
95.09
98.57
95.10
85.98
72.91
57.77
42.52
28.95
18.57
12.31
10.32
11.90
15.66
19.79
22.61
22.97
20.52
15.65
9.22
2.10
-5.02
-11.85
-18.41
-24.88
-31.46
-38.33
-45.40
-52.18
-57.69
-60.35
-58.39
-50.44
-36.30
-17.30
3.78
23.47
38.65
47.46
49.68
46.48
39.75
31.34
22.71
14.83
8.50
4.50
3.49
5.77
10.89
17.54
23.83
27.86
28.35
25.06
18.73
10.58
1.87
-6.52
-14.06
-20.37
-25.06
-27.83
-28.71
-28.28
-27.70
-28.26
-30.79
-35.31
-40.89
-46.08
-49.51
-50.36
-48.51
-44.35
-38.40
-31.00
-22.40
-12.88
-2.87
6.90
15.80
23.41
29.69
34.86
39.02
41.86
42.63
40.45
34.87
26.25
15.83
5.36
-3.37
-9.10
-11.22
-9.76
-5.22
1.56
9.39
16.79
22.12
23.89
21.10
13.54
1.76
-13.05
-29.24
-44.79
-57.36
-64.44
-63.82
-54.32
-36.42
-12.47
13.70
37.82
56.37
67.32
70.38
66.57
57.58
45.10
30.58
15.31
0.54
-12.29
-21.69
-26.39
-25.71
-19.89
-10.24
0.95
11.00
17.55
19.19
15.83
8.55
-0.89
-10.71
-19.61
-27.02
-32.87
-37.42
-40.90
-43.34
-44.62
-44.45
-42.61
-38.90
-33.42
-26.48
-18.70
-10.84
-3.68
2.26
6.94
10.94
15.30
21.26
29.70
40.55
52.59
63.58
70.87
72.23
66.74
54.88
38.36
19.46
0.42
-16.83
-30.70
-39.78
-43.02
-40.01
-31.63
-20.02
-8.32
0.15
3.01
-0.52
-9.66
-22.62
-37.49
-52.89
-68.01
-82.12
-93.97
-101.42
-101.87
-93.05
-74.09
-46.02
-11.64
25.32
61.13
92.69
117.63
134.06
140.60
136.56
122.45
100.32
73.45
45.68
20.33
-0.22
-14.67
-22.40
-23.32
-18.00
-7.96
4.15
14.99
21.54
22.11
16.79
7.04
-5.24
-18.66
-32.63
-46.96
-61.03
-73.20
-80.89
-81.26
-72.50
-54.58
-29.67
-1.63
25.00
46.20
59.41
63.84
60.21
50.22
35.90
19.22
2.20
-13.07
-24.38
-29.74
-27.98
-19.38
-5.81
9.52
22.89
31.19
32.65
27.27
16.51
2.60
-12.32
-26.70
-39.70
-50.84
-59.63
-65.37
-67.42
-65.51
-60.00
-51.84
-42.09
-31.44
-20.20
-8.46
3.31
14.01
22.04
25.87
24.66
18.79
9.78
-0.12
-8.54
-13.69
-14.57
-11.01
-3.51
7.14
20.14
34.73
50.09
64.99
77.67
86.03
88.19
83.15
71.35
54.62
35.55
16.60
-0.56
-15.19
-27.11
-36.17
-41.95
-43.97
-42.11
-37.04
-30.16
-23.09
-17.04
-12.53
-9.45
-7.51
-6.65
-6.91
-8.13
-9.50
-9.54
-6.59
0.38
11.22
24.37
37.41
47.69
53.19
52.91
47.03
36.54
22.84
7.42
-8.38
-23.33
-36.19
-45.72
-50.83
-50.77
-45.43
-35.52
-22.61
-9.00
2.67
9.92
10.98
5.28
-6.24
-21.28
-36.72
-49.38
-56.68
-56.97
-49.55
-34.63
-13.30
12.29
38.87
62.36
78.80
85.38
81.35
68.14
48.78
26.77
5.21
-13.71
-28.70
-38.93
-43.87
-43.36
-37.89
-28.73
-17.93
-7.74
-0.17
3.58
3.15
-1.09
-8.54
-18.65
-31.12
-45.77
-62.07
-78.81
-93.73
-103.74
-105.56
-96.67
-76.30
-46.06
-9.84
26.98
58.81
81.28
92.06
91.16
80.50
63.19
42.70
22.40
5.30
-6.23
-10.57
-7.19
3.09
18.14
34.82
49.67
59.63
62.79
58.60
47.93
32.57
14.62
-4.05
-21.91
-37.81
-50.59
-58.99
-61.83
-58.47
-49.32
-36.08
-21.38
-8.02
1.83
7.28
8.70
7.32
4.60
1.66
-0.93
-2.99
-4.25
-3.94
-0.84
6.38
18.35
34.21
51.57
66.97
77.09
79.80
74.85
63.65
48.53
31.75
15.06
-0.38
-13.57
-23.51
-29.11
-29.68
-25.34
-17.32
-7.72
0.94
6.46
7.47
3.71
-4.13
-14.84
-27.16
-40.21
-53.60
-67.18
-80.65
-93.01
-102.44
-106.43
-102.43
-88.66
-64.84
-32.53
5.09
43.77
79.16
107.59
126.71
135.63
134.74
125.40
109.62
89.91
69.05
49.88
34.76
25.07
20.70
20.14
20.99
20.83
18.04
12.26
4.28
-4.50
-12.69
-19.35
-24.09
-26.98
-28.26
-28.38
-27.89
-27.58
-28.32
-30.98
-36.20
-44.22
-54.91
-67.83
-82.18
-96.69
-109.44
-117.91
-119.35
-111.57
-93.81
-67.26
-35.01
-1.34
29.36
53.66
69.73
77.37
77.66
72.48
63.97
54.26
45.35
38.88
35.94
36.80
40.72
46.04
50.50
51.97
49.02
41.43
30.20
17.29
5.01
-4.58
-10.16
-11.36
-8.80
-3.94
1.34
5.10
5.78
2.44
-5.16
-16.57
-30.90
-46.88
-62.99
-77.47
-88.52
-94.51
-94.40
-87.95
-75.80
-59.40
-40.72
-21.86
-4.71
9.45
20.14
27.91
34.16
40.65
48.82
59.08
70.50
81.01
88.15
89.90
85.43
75.21
60.75
44.07
27.26
12.27
0.86
-5.37
-5.27
1.49
14.06
30.21
46.67
59.81
66.56
65.14
55.45
38.93
17.96
-4.76
-26.81
-46.19
-61.30
-70.91
-74.22
-71.16
-62.55
-50.03
-35.67
-21.36
-8.36
2.79
12.02
19.28
24.23
26.25
24.86
20.23
13.54
7.11
3.80
6.18
15.58
31.40
51.18
71.18
87.61
97.55
99.67
94.21
82.41
65.89
46.16
24.52
2.27
-18.95
-37.00
-49.59
-54.87
-52.15
-42.38
-28.06
-12.59
0.59
8.87
10.98
6.94
-2.30
-15.43
-31.25
-48.91
-67.92
-87.99
-108.47
-127.95
-143.97
-153.26
-152.40
-139.01
-112.47
-74.57
-29.21
18.28
62.19
97.47
120.45
129.37
124.34
107.19
81.13
50.33
19.52
-6.46
-23.31
-28.09
-19.86
-0.28
26.62
55.30
80.09
96.57
102.51
97.93
84.63
65.15
41.93
17.02
-7.91
-31.01
-50.03
-62.44
-66.12
-60.29
-46.26
-27.46
-8.66
5.35
11.19
7.64
-4.25
-21.94
-42.46
-63.22
-82.51
-99.17
-112.10
-119.63
-119.39
-108.87
-86.42
-52.37
-9.45
37.57
83.11
122.07
150.92
168.00
173.18
167.46
152.54
130.67
104.52
76.92
50.39
26.69
6.79
-8.86
-19.66
-24.61
-22.45
-12.49
4.54
25.91
47.31
63.96
72.13
70.31
59.42
42.18
21.86
1.18
-18.12
-35.11
-49.14
-59.50
-65.41
-66.41
-62.81
-55.79
-47.10
-38.55
-31.38
-26.01
-22.19
-19.23
-16.37
-13.04
-8.87
-3.68
2.56
9.76
17.60
25.41
32.14
36.55
37.43
33.96
25.95
13.92
-0.95
-16.93
-31.98
-43.92
-50.82
-51.45
-45.79
-35.26
-22.55
-10.88
-3.07
-0.71
-3.84
-11.26
-21.27
-32.47
-44.21
-56.47
-69.34
-82.33
-94.00
-101.81
-102.68
-93.85
-73.92
-43.76
-6.86
31.25
64.37
87.24
97.05
93.95
80.56
60.90
39.25
19.40
4.43
-3.28
-2.44
6.58
21.35
37.55
50.07
54.71
49.56
35.56
15.94
-5.14
-24.06
-38.41
-47.23
-50.55
-49.06
-43.83
-36.24
-27.93
-20.59
-15.69
-14.21
-16.47
-22.20
-30.75
-41.33
-53.03
-64.87
-75.45
-82.89
-84.77
-78.61
-62.73
-37.13
-4.03
32.33
66.67
94.00
110.89
116.12
110.61
96.75
77.50
55.61
33.28
12.10
-6.71
-22.00
-32.54
-37.23
-35.55
-28.02
-16.45
-3.67
7.11
13.38
13.93
9.06
0.17
-11.05
-23.25
-35.88
-49.04
-62.97
-77.39
-91.06
-101.59
-105.93
-101.10
-85.21
-58.25
-22.42
18.13
58.15
92.34
116.46
128.02
126.67
114.00
93.17
68.29
43.84
23.88
11.27
6.94
9.61
16.06
22.12
24.07
19.76
9.19
-5.76
-22.30
-37.63
-49.69
-57.28
-59.98
-57.96
-52.03
-43.71
-35.15
-28.74
-26.41
-28.95
-35.74
-45.00
-54.43
-62.03
-66.61
-67.74
-65.41
-59.50
-49.58
-35.10
-15.95
7.01
31.78
55.58
75.41
88.78
94.29
91.68
81.78
66.18
46.89
26.07
5.69
-12.63
-27.66
-38.52
-44.59
-45.56
-41.55
-33.39
-22.74
-11.89
-3.31
0.94
-0.38
-7.50
-19.87
-36.38
-55.29
-74.05
-89.15
-96.45
-92.15
-74.28
-43.93
-5.58
33.90
67.33
89.30
97.59
93.22
79.39
59.98
38.52
17.88
0.39
-11.84
-17.02
-14.27
-4.21
10.75
26.91
40.14
47.12
46.20
37.70
23.63
6.77
-10.07
-24.76
-36.13
-43.82
-48.03
-49.24
-48.09
-45.27
-41.56
-37.60
-33.83
-30.38
-27.23
-24.31
-21.61
-19.18
-16.95
-14.54
-11.21
-6.10
1.43
11.50
23.51
36.15
47.55
55.73
58.90
55.90
46.50
31.40
12.17
-9.26
-30.81
-50.49
-66.33
-76.39
-78.94
-72.96
-58.87
-39.03
-17.66
0.13
9.71
8.30
-4.30
-25.97
-53.07
-81.43
-106.98
-125.97
-134.89
-130.69
-111.25
-76.09
-27.17
30.86
91.04
145.33
186.22
208.50
210.39
193.81
163.59
126.06
87.45
52.77
25.47
7.58
-0.11
2.02
12.17
27.07
42.48
54.08
58.77
55.39
44.84
29.33
11.39
-6.99
-24.62
-40.90
-55.24
-66.69
-73.79
-74.91
-68.84
-55.46
-36.08
-13.36
9.24
28.46
42.00
49.14
50.73
48.71
45.44
42.95
42.43
44.13
47.37
50.95
53.51
53.87
51.30
45.51
36.77
25.72
13.46
1.34
-9.14
-16.75
-20.79
-21.51
-20.05
-18.24
-18.10
-21.22
-28.40
-39.44
-53.07
-67.15
-78.97
-85.74
-85.20
-76.26
-59.33
-36.46
-10.79
14.20
35.52
51.30
60.99
65.06
64.63
60.93
55.08
48.03
40.68
33.93
28.49
24.73
22.43
20.74
18.52
14.69
8.68
0.61
-8.87
-18.86
-28.54
-37.30
-44.82
-51.00
-55.92
-59.90
-63.49
-67.40
-72.20
-77.98
-84.05
-88.92
-90.71
-87.62
-78.58
-63.63
-43.83
-20.97
3.03
26.33
47.43
64.94
77.53
83.95
83.45
76.16
63.30
47.16
30.43
15.65
4.61
-1.77
-3.42
-0.87
4.89
12.47
20.14
25.98
28.25
25.88
18.74
7.67
-5.91
-20.44
-34.79
-48.50
-61.60
-74.27
-86.16
-95.97
-101.45
-99.88
-89.01
-68.15
-38.76
-4.51
29.62
58.60
78.61
87.89
86.83
77.62
63.53
48.24
35.32
27.72
27.33
34.60
48.34
65.92
83.79
98.27
106.49
106.93
99.64
86.00
68.11
48.11
27.84
8.65
-8.28
-21.62
-29.89
-31.91
-27.58
-18.51
-8.02
-0.28
1.09
-5.69
-19.84
-38.38
-57.13
-72.01
-79.90
-79.16
-69.56
-52.14
-28.98
-3.00
22.44
44.05
59.23
66.44
65.43
57.15
43.32
26.06
7.56
-10.06
-24.91
-35.23
-39.72
-37.72
-29.60
-17.00
-2.59
10.36
18.86
20.92
16.13
5.41
-9.39
-26.23
-43.38
-59.60
-74.09
-86.20
-95.36
-101.02
-102.74
-100.09
-92.50
-79.26
-59.66
-33.72
-2.84
29.81
59.69
82.02
93.27
92.27
80.54
61.78
40.83
22.49
10.66
7.66
13.92
27.80
45.82
63.41
76.10
80.78
76.51
64.49
47.26
27.59
7.50
-11.92
-30.14
-46.42
-59.39
-67.21
-68.22
-61.81
-48.80
-31.52
-13.15
3.03
14.29
18.79
15.75
5.47
-10.75
-30.76
-51.88
-71.25
-86.15
-94.13
-93.13
-81.71
-59.44
-27.58
10.60
50.09
85.12
110.66
123.70
123.98
113.50
95.49
73.16
48.79
23.67
-1.30
-24.82
-44.64
-57.73
-61.19
-53.51
-35.52
-10.57
16.25
39.66
55.62
62.28
60.02
50.60
36.05
17.87
-3.31
-27.33
-53.67
-80.67
-105.06
-122.37
-127.92
-118.45
-93.59
-56.57
-13.70
27.35
59.75
79.37
85.44
79.90
65.91
46.34
22.90
-3.63
-32.52
-62.04
-89.00
-109.25
-118.71
-115.00
-98.41
-72.12
-41.52
-12.80
8.53
18.80
16.64
2.75
-20.75
-51.18
-85.79
-122.17
-158.12
-191.55
-220.46
-243.12
-258.48
-266.48
-267.99
-264.22
-256.04
-243.38
-225.31
-200.63
-168.73
-130.20
-86.96
-41.84
2.10
42.21
76.65
104.48
125.67
140.75
150.57
155.88
157.07
154.28
147.78
138.43
127.89
118.31
111.61
108.80
109.52
112.30
115.28
117.05
117.33
116.95
117.44
120.12
125.39
132.35
139.03
143.06
142.52
136.81
127.07
116.32
109.02
110.13
123.66
151.03
189.78
233.36
272.51
297.87
303.01
286.49
252.17
207.63
161.43
120.52
88.66
66.32
51.62
41.63
33.53
25.20
15.32
3.33
-10.63
-25.78
-40.73
-53.65
-62.70
-66.59
-65.24
-59.98
-53.27
-47.95
-46.22
-49.01
-55.89
-65.50
-76.32
-87.25
-97.66
-107.00
-114.23
-117.46
-114.26
-102.34
-80.74
-50.69
-15.85
18.39
46.42
64.00
69.48
63.96
50.66
33.61
16.46
1.88
-8.52
-13.93
-14.14
-9.66
-1.90
6.79
13.47
15.49
11.30
1.02
-13.66
-30.10
-45.47
-57.59
-65.28
-68.32
-67.32
-63.36
-57.90
-52.42
-48.24
-46.28
-46.76
-49.25
-52.85
-56.65
-60.15
-63.41
-66.83
-70.57
-73.92
-75.05
-71.33
-60.15
-39.97
-11.16
23.69
60.13
92.69
116.15
126.77
123.31
107.24
82.21
52.85
23.33
-3.51
-26.19
-43.86
-55.39
-59.21
-53.96
-39.87
-19.67
1.60
18.07
25.08
20.89
6.90
-13.44
-36.32
-58.70
-78.43
-93.42
-100.84
-97.27
-80.05
-49.15
-8.31
35.33
73.29
98.58
107.91
102.27
85.89
64.26
42.16
22.78
7.73
-2.35
-7.17
-6.71
-1.50
7.08
16.73
24.67
28.44
26.71
19.71
9.01
-3.08
-14.48
-24.09
-31.96
-38.84
-45.41
-51.60
-56.40
-58.21
-55.69
-48.36
-36.98
-23.35
-9.77
1.63
9.41
12.98
12.57
9.09
3.95
-1.06
-4.00
-3.17
2.30
12.03
24.16
35.73
43.58
45.34
40.22
29.07
13.86
-3.25
-20.52
-36.81
-51.17
-62.29
-68.39
-67.64
-59.18
-43.89
-24.59
-5.49
9.07
15.93
13.97
4.14
-11.21
-29.36
-48.00
-65.48
-80.55
-91.67
-96.69
-93.02
-78.47
-52.35
-16.38
25.27
66.60
101.28
124.19
132.69
127.00
109.81
85.24
57.56
30.30
5.92
-13.97
-28.13
-35.41
-35.02
-27.24
-14.02
1.03
13.51
19.70
17.90
8.77
-5.31
-21.65
-38.46
-55.15
-71.57
-86.71
-97.95
-101.30
-92.96
-71.27
-38.10
1.14
39.09
68.82
86.02
89.91
82.79
68.53
51.04
33.27
17.12
3.82
-5.66
-10.48
-10.29
-5.65
1.80
9.54
14.94
16.02
12.12
3.93
-6.83
-18.04
-27.89
-35.28
-39.91
-42.02
-42.18
-41.02
-39.23
-37.48
-36.28
-35.84
-35.98
-36.10
-35.42
-33.24
-29.17
-23.15
-15.27
-5.59
5.94
19.35
34.32
49.90
64.41
75.76
81.89
81.48
74.40
61.80
45.81
28.91
13.34
0.56
-8.75
-14.68
-17.74
-18.57
-17.87
-16.27
-14.40
-12.91
-12.48
-13.70
-17.05
-22.87
-31.15
-41.57
-53.26
-64.82
-74.32
-79.54
-78.40
-69.43
-52.40
-28.49
-0.35
28.44
54.04
73.14
83.55
84.56
76.87
62.22
43.13
22.31
2.60
-13.33
-23.18
-25.50
-20.13
-8.52
6.43
21.03
31.76
36.25
33.86
25.61
13.52
-0.23
-13.98
-26.87
-38.72
-49.63
-59.54
-67.86
-73.42
-74.56
-69.51
-56.97
-36.73
-10.19
19.59
48.44
72.04
87.08
92.10
87.72
76.20
60.72
44.53
30.55
20.96
16.98
18.63
24.58
32.32
38.77
41.17
37.99
29.39
16.99
3.21
-9.56
-19.60
-26.16
-29.30
-29.71
-28.29
-26.11
-24.16
-23.38
-24.45
-27.73
-33.06
-39.74
-46.51
-51.78
-53.89
-51.50
-43.99
-31.68
-15.84
1.61
18.63
33.47
44.94
52.44
55.75
54.89
50.03
41.64
30.51
17.81
4.84
-7.14
-17.14
-24.57
-29.16
-30.91
-30.03
-26.96
-22.46
-17.45
-12.94
-9.79
-8.72
-10.08
-14.01
-20.55
-29.59
-40.95
-54.19
-68.31
-81.54
-91.28
-94.46
-88.36
-71.62
-44.99
-11.58
23.89
56.15
80.84
95.36
99.22
93.62
80.78
63.29
43.76
24.72
8.47
-3.03
-8.56
-7.96
-2.34
6.10
14.65
20.71
22.56
19.71
12.81
3.29
-7.30
-17.79
-27.64
-36.74
-45.14
-52.74
-59.23
-64.21
-67.31
-68.20
-66.59
-62.07
-54.27
-43.15
-29.37
-14.47
-0.67
9.61
14.52
13.24
6.27
-4.71
-17.25
-28.68
-36.62
-39.53
-36.90
-29.35
-18.28
-5.48
7.19
18.01
25.27
27.34
22.80
10.93
-7.89
-32.02
-58.83
-85.46
-109.52
-129.58
-145.12
-156.24
-163.37
-167.04
-167.95
-166.96
-164.76
-161.38
-155.79
-146.07
-130.10
-106.66
-76.33
-41.64
-6.41
25.46
51.15
69.51
80.86
86.32
87.01
83.73
76.97
67.26
55.49
43.04
31.52
22.34
16.29
13.32
12.66
13.19
13.91
14.24
14.13
13.83
13.55
13.17
12.15
9.66
4.89
-2.69
-13.13
-25.87
-39.66
-52.57
-62.07
-65.39
-60.21
-45.30
-21.00
10.80
47.17
84.94
121.42
154.66
183.48
207.13
225.17
237.43
244.21
246.52
246.17
245.56
247.17
252.90
263.14
276.16
288.12
293.81
288.18
268.13
233.79
188.70
138.88
91.05
50.67
20.73
1.22
-10.20
-17.22
-23.61
-32.32
-44.93
-61.44
-80.40
-99.10
-114.07
-121.66
-118.90
-104.35
-78.94
-46.15
-11.37
19.35
41.03
51.04
49.62
39.41
24.25
7.96
-6.50
-17.33
-23.66
-25.18
-22.10
-15.16
-5.80
3.84
11.37
14.73
12.88
6.11
-4.12
-15.81
-27.09
-36.71
-44.18
-49.48
-52.71
-53.91
-53.14
-50.62
-47.06
-43.55
-41.26
-41.07
-43.24
-47.32
-52.42
-57.37
-60.97
-61.91
-58.76
-50.18
-35.31
-14.50
10.22
35.27
56.25
69.24
72.03
64.68
49.23
28.76
6.29
-15.90
-36.25
-53.39
-65.58
-70.68
-66.77
-53.18
-31.39
-5.27
19.82
38.53
47.15
44.63
32.42
13.49
-9.12
-33.24
-57.62
-81.09
-101.33
-114.34
-114.98
-98.82
-64.53
-15.62
39.67
90.55
127.15
143.84
140.72
122.70
96.89
69.43
43.83
21.07
1.21
-14.91
-25.16
-27.09
-19.78
-5.11
12.28
26.65
33.44
31.07
21.18
7.57
-5.70
-15.98
-22.76
-27.29
-31.46
-36.74
-43.53
-51.12
-58.01
-62.48
-63.10
-59.11
-50.72
-39.03
-25.81
-13.11
-2.68
4.45
8.12
8.96
8.06
6.54
5.39
5.31
6.83
10.15
15.09
20.96
26.51
30.22
30.66
27.00
19.31
8.58
-3.68
-15.80
-26.34
-34.16
-38.45
-38.71
-34.95
-27.88
-19.06
-10.66
-4.96
-3.70
-7.41
-15.37
-25.88
-36.82
-46.17
-52.23
-53.69
-49.68
-40.01
-25.38
-7.61
10.60
26.23
36.78
40.92
38.72
31.37
20.63
8.26
-4.31
-15.95
-25.67
-32.43
-35.24
-33.32
-26.48
-15.38
-1.61
12.57
24.74
32.89
35.88
33.60
26.81
16.80
5.02
-7.22
-18.78
-28.60
-35.66
-39.13
-38.53
-34.06
-26.65
-17.82
-9.32
-2.71
1.05
1.72
-0.26
-3.81
-7.41
-9.39
-8.33
-3.49
4.77
14.97
24.90
32.21
35.12
32.90
25.92
15.43
2.98
-9.93
-22.11
-32.67
-40.88
-46.14
-48.01
-46.46
-42.05
-36.08
-30.33
-26.68
-26.53
-30.53
-38.47
-49.55
-62.75
-76.81
-90.10
-100.35
-104.56
-99.61
-83.24
-55.15
-17.63
24.58
65.50
99.35
121.96
131.61
128.93
116.31
96.95
74.19
50.96
29.65
12.04
-0.71
-8.03
-9.97
-7.09
-0.39
8.88
19.25
29.20
37.20
41.90
42.34
38.16
29.68
17.91
4.33
-9.32
-21.24
-29.74
-33.48
-31.64
-24.28
-12.60
1.24
14.56
24.85
30.51
31.18
27.66
21.45
14.18
7.22
1.49
-2.35
-3.89
-2.88
0.61
6.06
12.49
18.61
23.11
24.95
23.66
19.32
12.59
4.39
-4.27
-12.48
-19.52
-24.84
-28.16
-29.49
-29.23
-28.13
-27.05
-26.71
-27.35
-28.55
-29.56
-29.64
-28.49
-26.39
-23.95
-21.56
-19.10
-15.89
-11.20
-4.79
2.66
9.70
14.57
16.03
13.78
8.53
1.42
-6.48
-14.72
-23.43
-32.79
-42.55
-51.65
-58.39
-61.14
-59.00
-52.33
-42.65
-32.16
-23.02
-16.89
-14.80
-17.16
-23.97
-34.81
-48.67
-63.80
-77.81
-87.91
-91.53
-86.99
-73.86
-53.17
-27.08
1.59
29.95
55.40
75.87
89.79
96.18
94.65
85.65
70.45
51.11
30.14
10.04
-7.12
-19.83
-27.14
-28.57
-24.18
-14.68
-1.51
13.14
26.63
36.46
40.72
38.51
29.92
15.80
-2.59
-23.83
-46.25
-67.71
-85.33
-95.75
-95.85
-83.79
-59.90
-26.97
10.32
46.57
77.02
98.54
109.84
111.23
103.99
89.82
70.63
48.51
25.74
4.80
-11.83
-22.09
-24.68
-19.51
-7.83
7.90
24.45
38.55
47.54
49.90
45.48
35.34
21.26
5.30
-10.69
-25.35
-37.85
-47.86
-55.24
-59.69
-60.68
-57.51
-49.78
-37.78
-22.79
-6.87
7.64
18.90
26.03
29.29
29.79
28.91
27.88
27.55
28.25
29.88
31.91
33.44
33.44
30.93
25.41
16.94
6.21
-5.60
-17.12
-26.90
-33.67
-36.59
-35.49
-31.00
-24.56
-18.02
-13.17
-11.39
-13.30
-18.82
-27.19
-36.98
-46.11
-52.02
-52.11
-44.41
-28.39
-5.24
22.28
50.61
76.37
97.07
111.41
119.07
120.40
116.19
107.56
96.10
83.68
72.20
63.09
56.89
53.08
50.34
46.98
41.60
33.51
22.84
10.43
-2.52
-14.77
-25.36
-33.76
-40.01
-44.60
-48.38
-52.35
-57.25
-63.30
-70.00
-76.24
-80.61
-81.98
-79.85
-74.48
-66.76
-57.73
-48.31
-39.14
-30.71
-23.49
-18.16
-15.44
-15.96
-19.99
-27.27
-36.93
-47.63
-57.71
-65.53
-69.76
-69.74
-65.61
-58.24
-49.01
-39.40
-30.60
-23.19
-16.98
-11.02
-3.83
6.08
19.63
36.60
55.44
73.49
87.85
96.27
97.95
93.80
85.97
77.15
69.68
64.98
63.39
64.48
67.45
71.63
76.70
82.72
89.99
98.69
108.54
118.46
126.62
130.79
128.96
120.06
104.37
83.47
59.83
36.04
14.47
-3.06
-15.27
-21.40
-21.52
-16.82
-9.63
-2.96
0.34
-1.44
-8.37
-19.09
-31.54
-43.87
-54.94
-64.17
-71.17
-75.25
-75.34
-70.58
-60.92
-47.59
-32.94
-19.75
-10.27
-5.56
-5.28
-8.11
-12.51
-17.12
-21.00
-23.51
-24.16
-22.58
-18.80
-13.39
-7.51
-2.53
0.44
0.94
-0.81
-4.12
-8.22
-12.51
-16.75
-20.79
-24.63
-28.16
-31.38
-34.40
-37.47
-40.90
-44.82
-49.15
-53.36
-56.69
-58.18
-56.93
-52.37
-44.23
-32.59
-17.88
-0.70
18.24
38.02
57.57
75.57
90.42
100.39
103.94
100.14
89.12
72.26
51.96
31.19
12.72
-1.41
-10.23
-13.85
-13.26
-9.89
-5.35
-1.13
1.60
2.14
0.27
-3.78
-9.52
-16.37
-23.66
-30.76
-36.96
-41.46
-43.35
-41.77
-36.08
-26.17
-12.81
2.36
17.04
28.87
36.06
37.88
34.76
28.03
19.45
10.71
3.22
-2.09
-4.75
-4.71
-2.38
1.48
5.86
9.73
12.17
12.51
10.40
5.89
-0.55
-8.00
-15.17
-20.65
-23.27
-22.41
-18.35
-12.23
-5.80
-0.92
0.89
-1.23
-7.47
-17.46
-30.44
-45.30
-60.33
-73.26
-81.39
-82.28
-74.47
-58.09
-34.85
-7.58
20.59
46.79
68.71
84.61
93.24
93.92
86.76
72.91
54.47
34.07
14.41
-2.22
-14.00
-19.74
-18.96
-12.29
-1.63
10.03
19.35
23.73
22.24
15.75
6.33
-3.78
-13.12
-21.22
-28.30
-34.60
-40.02
-44.12
-46.37
-46.38
-43.89
-38.64
-30.50
-19.69
-7.04
5.92
17.21
25.02
28.25
26.97
22.22
15.76
9.39
4.60
2.29
2.66
5.32
9.49
14.18
18.50
21.73
23.35
23.02
20.57
15.99
9.57
1.76
-6.83
-15.60
-23.92
-31.16
-36.49
-38.94
-37.76
-32.81
-25.01
-16.30
-9.02
-5.08
-5.18
-8.54
-13.41
-17.98
-21.04
-22.31
-22.07
-20.55
-17.61
-12.81
-5.86
2.87
12.22
20.61
26.64
29.53
29.44
27.05
23.20
18.48
12.98
6.42
-1.49
-10.73
-20.74
-30.23
-37.51
-40.91
-39.21
-32.18
-20.77
-6.99
6.50
16.93
22.24
21.44
14.81
3.70
-9.90
-23.83
-36.05
-44.81
-48.74
-46.92
-39.23
-26.53
-10.69
5.71
20.05
30.46
36.14
37.32
34.92
29.93
23.18
15.48
7.83
1.55
-1.86
-1.43
2.78
9.51
16.56
21.61
23.03
20.38
14.27
5.92
-3.47
-13.00
-21.97
-29.65
-35.27
-38.21
-38.55
-37.28
-36.08
-36.69
-40.00
-45.59
-51.95
-57.07
-59.41
-58.36
-54.13
-47.18
-37.64
-25.08
-8.81
11.35
34.38
57.79
78.04
91.59
96.01
90.89
77.85
59.95
40.60
22.62
7.66
-3.64
-11.23
-15.24
-15.92
-13.75
-9.66
-5.09
-1.52
-0.06
-1.11
-4.44
-9.53
-16.09
-24.26
-34.46
-46.79
-60.24
-72.31
-79.40
-77.70
-64.70
-40.28
-7.24
29.29
63.14
88.83
102.93
104.60
95.37
78.19
56.38
32.95
10.37
-9.18
-23.52
-30.59
-28.91
-18.42
-1.00
19.55
38.51
51.70
56.70
53.41
43.68
30.12
15.08
-0.14
-15.11
-29.57
-42.74
-52.97
-58.32
-57.46
-50.46
-39.04
-25.96
-13.93
-4.57
1.86
6.04
8.75
10.08
9.38
5.86
-0.56
-8.59
-15.71
-19.01
-16.39
-7.48
6.12
21.41
35.01
44.30
48.00
46.35
40.50
31.94
21.91
11.26
0.52
-9.86
-19.20
-26.64
-31.21
-32.23
-29.58
-23.92
-16.66
-9.53
-4.15
-1.57
-2.20
-5.90
-12.21
-20.42
-29.61
-38.40
-44.92
-47.08
-43.13
-32.33
-15.55
4.80
25.33
42.61
54.13
58.89
57.33
50.83
41.01
29.17
16.25
3.11
-9.09
-18.69
-23.92
-23.53
-17.45
-7.11
4.92
15.71
22.93
25.50
23.71
18.83
12.30
5.22
-1.90
-8.92
-15.80
-22.33
-28.24
-33.30
-37.36
-40.29
-41.80
-41.32
-38.19
-32.21
-23.92
-14.83
-7.02
-2.31
-1.63
-4.38
-8.57
-11.56
-11.05
-6.02
2.86
13.55
23.40
30.20
32.80
31.36
26.87
20.61
13.45
5.76
-2.53
-11.43
-20.54
-28.75
-34.52
-36.29
-33.10
-25.02
-13.44
-0.66
10.75
18.65
21.93
20.69
15.95
9.25
2.21
-4.00
-8.68
-11.75
-13.60
-14.71
-15.46
-15.79
-15.12
-12.47
-6.92
1.98
13.84
27.41
40.90
52.45
60.67
64.82
64.86
61.23
54.61
45.71
35.38
24.60
14.56
6.48
1.38
-0.16
1.78
6.53
12.87
19.22
24.00
25.81
23.85
17.97
8.73
-2.80
-15.30
-27.42
-37.76
-44.92
-47.54
-44.65
-36.13
-23.08
-7.87
6.55
17.52
23.60
24.96
23.05
19.73
16.36
13.31
10.05
5.76
-0.02
-6.93
-13.86
-19.43
-22.48
-22.62
-20.26
-16.53
-12.80
-10.30
-9.70
-11.01
-13.71
-17.14
-20.79
-24.53
-28.53
-32.96
-37.64
-41.88
-44.63
-44.71
-41.34
-34.40
-24.50
-12.85
-1.00
9.44
17.12
21.06
20.79
16.44
8.82
-0.36
-8.56
-12.85
-10.77
-1.29
14.44
33.15
50.31
61.70
64.72
59.09
46.58
29.98
12.09
-4.93
-19.44
-30.11
-35.74
-35.63
-30.26
-21.60
-12.87
-7.53
-7.97
-14.68
-26.24
-40.17
-54.23
-67.30
-79.43
-90.94
-101.35
-108.55
-109.07
-99.23
-76.64
-41.37
3.66
53.27
101.21
141.44
169.29
182.12
179.66
163.79
138.17
107.38
76.08
48.33
27.01
13.64
8.30
9.60
14.94
20.98
24.41
23.01
16.33
5.62
-6.76
-18.51
-28.35
-36.25
-42.99
-49.14
-54.44
-57.63
-56.99
-51.24
-40.20
-25.11
-8.13
8.24
21.96
31.70
37.01
37.95
35.00
28.97
21.04
12.95
6.67
3.97
5.61
10.94
17.92
23.83
26.27
24.08
17.57
8.14
-2.54
-13.33
-23.80
-33.88
-43.12
-50.28
-53.61
-51.65
-44.41
-33.60
-22.40
-14.24
-11.60
-15.26
-24.41
-37.24
-51.72
-65.85
-77.45
-83.94
-82.37
-70.24
-46.64
-13.22
25.63
63.74
94.76
114.02
119.63
112.71
96.49
75.02
52.02
30.24
11.52
-2.84
-11.78
-14.67
-11.66
-4.06
5.69
14.61
20.12
20.84
16.93
9.76
1.14
-7.43
-15.24
-22.34
-29.20
-36.30
-43.82
-51.63
-59.11
-65.38
-69.33
-69.85
-66.24
-58.60
-47.92
-36.01
-24.87
-16.07
-10.13
-6.27
-2.64
3.05
12.58
26.43
43.23
60.01
72.97
78.83
75.95
64.83
47.82
28.05
8.38
-9.31
-23.92
-34.56
-40.09
-39.15
-30.98
-16.17
2.79
21.93
36.96
44.66
43.77
35.10
20.74
3.12
-15.73
-34.05
-49.83
-60.35
-62.33
-53.01
-31.57
-0.21
35.89
69.94
95.61
108.96
109.36
99.13
82.14
62.34
42.76
25.36
11.46
2.27
-1.18
1.44
9.14
19.39
28.73
33.86
32.92
26.18
15.72
4.36
-5.62
-13.29
-19.14
-24.25
-29.40
-34.54
-38.79
-41.06
-40.68
-37.69
-32.71
-26.58
-19.96
-13.20
-6.49
-0.23
4.92
8.12
8.71
6.65
2.59
-2.29
-6.73
-9.91
-11.64
-12.37
-12.88
-13.95
-16.02
-19.25
-23.57
-28.96
-35.60
-43.77
-53.40
-63.58
-72.17
-76.09
-72.39
-59.60
-38.92
-14.41
8.04
22.73
26.01
17.43
-0.59
-24.05
-48.83
-71.50
-89.23
-99.30
-98.96
-86.02
-60.05
-23.42
18.71
59.51
92.46
113.21
120.50
115.87
102.42
83.49
61.85
39.73
19.32
3.27
-5.57
-4.95
5.55
23.89
45.59
65.05
77.21
79.15
70.93
55.08
35.46
15.67
-1.94
-16.76
-29.40
-40.90
-51.83
-61.74
-69.28
-72.78
-70.98
-63.69
-51.93
-37.63
-23.00
-10.07
-0.34
5.23
6.10
2.18
-5.83
-16.18
-25.87
-31.33
-29.53
-19.40
-2.63
16.75
33.58
43.59
44.71
37.58
24.74
9.14
-6.98
-22.70
-37.84
-52.04
-63.95
-71.17
-70.94
-61.26
-41.99
-15.27
14.60
42.23
62.47
71.79
69.17
56.20
36.40
14.03
-6.96
-23.63
-34.04
-36.83
-31.09
-16.53
5.71
32.60
59.28
80.14
90.64
88.86
76.05
55.86
32.75
10.28
-9.60
-26.26
-39.50
-48.69
-52.73
-50.62
-42.40
-29.65
-15.11
-1.98
7.24
11.33
10.34
5.09
-3.53
-15.03
-29.30
-46.20
-64.95
-83.56
-98.82
-106.89
-104.38
-89.47
-62.72
-27.09
12.85
52.02
85.96
111.48
126.76
131.20
125.10
109.65
86.90
59.77
31.90
7.30
-10.35
-18.59
-16.92
-7.26
6.48
19.56
27.99
29.79
25.30
16.58
6.03
-4.76
-15.48
-26.76
-39.49
-54.15
-70.42
-87.12
-102.14
-112.58
-115.05
-106.47
-85.22
-51.97
-10.10
34.98
77.15
111.08
133.39
142.97
140.63
128.45
109.28
86.45
63.70
44.89
33.25
30.44
35.80
46.22
57.12
63.98
64.02
57.03
45.04
31.09
17.77
6.22
-3.80
-13.15
-22.36
-31.15
-38.57
-43.75
-46.44
-47.07
-46.28
-44.33
-40.78
-34.77
-25.75
-14.26
-1.95
8.82
16.07
19.08
18.71
16.89
15.64
16.05
17.87
19.85
20.50
18.93
15.15
9.99
4.40
-1.04
-6.43
-12.30
-19.09
-26.71
-34.26
-40.38
-43.77
-43.83
-40.98
-36.55
-32.33
-29.99
-30.67
-34.75
-41.90
-51.18
-61.19
-70.16
-76.15
-77.24
-71.92
-59.55
-40.58
-16.66
9.63
35.20
57.02
72.66
80.60
80.53
73.17
60.13
43.45
25.36
8.18
-5.77
-14.28
-15.77
-9.89
1.96
16.63
29.99
38.23
39.05
32.33
19.87
4.41
-11.51
-26.22
-39.00
-49.51
-57.31
-61.76
-62.34
-59.08
-52.72
-44.32
-34.75
-24.28
-12.65
0.38
14.30
27.66
38.36
44.57
45.73
43.01
39.04
36.83
38.40
43.87
51.33
57.74
60.27
57.45
49.59
38.38
25.96
14.01
3.47
-5.19
-11.56
-15.04
-15.09
-11.79
-6.17
-0.06
4.51
6.01
3.85
-1.72
-10.05
-20.61
-33.13
-47.35
-62.46
-76.67
-87.19
-90.81
-85.00
-68.97
-44.19
-14.18
16.39
43.15
62.99
74.69
78.58
75.97
68.46
57.56
44.71
31.50
19.70
11.06
6.81
7.24
11.52
17.93
24.48
29.42
31.69
31.00
27.63
22.09
14.86
6.39
-2.74
-11.73
-19.57
-25.41
-29.00
-30.94
-32.49
-35.00
-39.18
-44.53
-49.49
-52.04
-50.74
-45.25
-36.47
-25.93
-15.04
-4.61
5.13
14.16
22.23
28.65
32.63
33.59
31.52
27.04
21.10
14.50
7.77
1.02
-5.77
-12.45
-18.46
-22.89
-24.73
-23.29
-18.57
-11.45
-3.47
3.49
7.71
8.17
4.68
-2.22
-11.60
-22.59
-34.57
-47.07
-59.32
-69.84
-76.30
-76.06
-67.11
-48.97
-23.22
6.85
37.18
64.03
84.82
98.38
104.65
104.24
98.09
87.37
73.61
58.82
45.09
34.20
26.99
23.04
20.95
18.94
15.58
10.34
3.69
-3.42
-9.99
-15.48
-19.77
-22.89
-24.69
-24.88
-23.31
-20.45
-17.59
-16.63
-19.42
-26.92
-38.69
-52.90
-66.84
-77.81
-83.78
-83.78
-77.77
-66.22
-50.04
-30.40
-8.98
12.00
30.10
43.19
50.01
50.48
45.65
37.11
26.49
15.14
4.19
-5.34
-12.34
-15.87
-15.49
-11.53
-5.23
1.67
7.45
10.91
11.64
9.94
6.52
2.17
-2.59
-7.53
-12.62
-17.87
-23.13
-27.94
-31.47
-32.57
-30.03
-22.94
-11.16
4.45
22.10
39.44
54.17
64.58
69.88
70.02
65.64
57.82
48.13
38.64
31.48
28.22
29.15
32.87
36.88
38.55
36.38
30.43
22.08
13.08
4.66
-2.80
-9.46
-15.44
-20.48
-24.12
-26.29
-27.69
-29.69
-33.72
-40.64
-50.29
-61.59
-72.88
-82.42
-88.62
-90.19
-86.32
-76.92
-62.87
-45.93
-28.44
-12.57
0.34
10.05
17.24
22.86
27.58
31.47
34.21
35.42
35.06
33.45
31.05
28.19
24.89
20.98
16.29
10.99
5.61
0.93
-2.20
-3.31
-2.38
0.02
2.89
5.05
5.40
3.26
-1.64
-9.03
-18.27
-28.17
-37.20
-43.61
-45.79
-42.74
-34.47
-21.94
-6.74
9.43
25.27
39.86
52.43
62.00
67.42
67.84
63.22
54.89
45.20
36.81
31.74
30.74
33.20
37.60
42.18
45.39
46.16
43.89
38.40
30.01
19.59
8.48
-1.85
-10.20
-15.99
-19.42
-21.36
-22.95
-25.24
-28.93
-34.12
-40.34
-46.61
-51.57
-53.76
-51.91
-45.32
-34.17
-19.50
-3.02
13.37
27.97
39.47
47.05
50.22
48.84
43.21
34.16
23.12
11.80
1.81
-5.81
-10.78
-13.53
-14.80
-15.30
-15.46
-15.41
-15.20
-14.88
-14.65
-14.83
-15.84
-18.02
-21.59
-26.61
-32.90
-39.99
-47.20
-53.53
-57.82
-58.88
-55.57
-47.16
-33.63
-15.86
4.19
23.74
39.80
50.01
53.42
50.77
44.20
36.42
29.78
25.56
23.95
24.33
25.90
27.97
29.96
31.16
30.62
27.37
20.83
11.34
0.35
-10.02
-17.68
-21.45
-21.54
-19.30
-16.68
-15.31
-15.91
-18.23
-21.29
-23.98
-25.47
-25.50
-24.23
-21.98
-18.86
-14.73
-9.22
-2.12
6.41
15.77
24.93
32.78
38.36
41.02
40.50
36.80
30.25
21.54
11.72
2.13
-5.91
-11.53
-14.60
-15.66
-15.61
-15.17
-14.66
-13.96
-12.89
-11.53
-10.58
-11.05
-13.96
-19.75
-28.05
-37.75
-47.33
-55.24
-60.12
-60.89
-56.77
-47.44
-33.30
-15.72
2.97
19.95
32.75
40.13
42.40
41.25
38.87
37.02
36.38
36.61
36.83
36.24
34.50
31.63
27.67
22.52
15.93
7.82
-1.32
-10.40
-17.95
-22.75
-24.31
-23.09
-20.21
-16.99
-14.33
-12.66
-11.94
-12.18
-13.60
-16.70
-21.79
-28.49
-35.41
-40.35
-40.99
-35.79
-24.55
-8.51
10.15
28.95
45.73
58.80
66.88
69.02
64.73
54.37
39.45
22.71
7.46
-3.31
-8.03
-6.99
-2.13
3.77
8.23
9.81
8.33
4.60
-0.23
-5.11
-9.33
-12.54
-14.70
-16.08
-17.36
-19.49
-23.43
-29.55
-37.13
-44.30
-48.57
-47.75
-40.82
-28.41
-12.54
4.16
19.29
31.33
39.66
44.38
45.88
44.63
41.14
36.09
30.30
24.61
19.64
15.62
12.27
9.02
5.35
1.11
-3.44
-7.77
-11.41
-14.11
-15.96
-17.20
-18.04
-18.58
-18.91
-19.35
-20.63
-23.68
-29.20
-37.01
-45.75
-53.05
-56.29
-53.54
-44.29
-29.68
-12.00
6.12
22.44
35.59
45.07
50.83
52.94
51.46
46.51
38.59
28.72
18.39
9.22
2.47
-1.38
-2.74
-2.56
-1.94
-1.66
-2.01
-3.00
-4.64
-7.23
-11.28
-17.21
-24.87
-33.43
-41.73
-48.69
-53.88
-57.52
-60.17
-62.02
-62.48
-60.26
-54.04
-43.19
-28.33
-11.27
5.71
20.59
32.26
40.51
45.66
48.12
48.25
46.41
43.17
39.42
36.17
34.11
33.20
32.58
31.00
27.46
21.77
14.73
7.80
2.56
0.05
0.47
3.24
7.23
11.15
13.68
13.65
10.18
2.96
-7.50
-19.51
-30.50
-37.51
-38.05
-30.90
-16.54
3.02
24.94
46.31
64.94
79.58
89.78
95.55
96.98
94.18
87.32
76.96
64.18
50.57
37.89
27.63
20.63
16.91
15.87
16.68
18.58
21.16
24.29
27.88
31.60
34.80
36.55
35.90
32.17
25.10
15.00
2.77
-10.06
-21.36
-28.65
-29.60
-22.79
-8.45
11.04
31.58
48.38
57.44
56.73
46.68
29.61
8.77
-12.70
-32.26
-47.96
-58.40
-62.79
-61.28
-55.45
-48.11
-42.66
-41.98
-47.52
-58.84
-74.03
-90.46
-105.56
-117.32
-124.40
-126.27
-123.24
-116.56
-108.31
-100.99
-96.81
-96.90
-100.94
-107.10
-112.68
-114.93
-111.82
-102.56
-87.50
-67.87
-45.29
-21.35
2.52
25.16
45.55
62.91
76.68
86.73
93.34
97.21
99.16
99.85
99.56
98.07
94.81
89.06
80.36
68.64
54.47
38.92
23.41
9.44
-1.74
-9.39
-13.54
-14.92
-14.84
-14.79
-16.09
-19.55
-25.43
-33.44
-42.80
-52.33
-60.50
-65.60
-66.12
-61.20
-51.01
-36.82
-20.70
-4.88
8.83
19.40
26.62
30.86
32.62
32.33
30.27
26.66
21.84
16.48
11.61
8.49
8.31
11.88
19.35
30.15
43.06
56.30
67.75
75.23
76.83
71.46
59.18
41.35
20.29
-1.30
-20.92
-36.61
-47.05
-51.52
-49.94
-43.09
-32.66
-21.01
-10.54
-3.05
0.76
1.13
-1.22
-5.53
-11.20
-17.65
-24.12
-29.60
-33.10
-34.07
-32.70
-29.71
-25.95
-21.99
-17.90
-13.32
-7.85
-1.33
5.97
13.49
20.61
26.94
32.45
37.36
41.92
46.25
50.26
53.80
56.90
59.84
62.99
66.35
69.21
70.06
67.10
59.18
46.48
30.74
14.77
1.55
-6.74
-9.04
-5.38
3.37
15.66
29.25
41.23
48.39
48.06
39.03
22.16
0.26
-22.87
-43.69
-59.88
-70.70
-76.65
-78.71
-77.70
-74.05
-68.03
-60.10
-51.27
-42.96
-36.60
-33.17
-32.83
-35.07
-39.13
-44.42
-50.83
-58.36
-66.68
-74.67
-80.38
-81.50
-76.20
-63.88
-45.49
-23.36
-0.55
20.02
36.23
47.11
52.87
54.70
54.54
54.90
58.35
66.86
81.04
99.50
118.97
135.20
144.38
144.43
135.72
120.61
102.30
83.60
66.13
50.34
36.07
23.15
11.67
1.90
-6.09
-12.61
-18.29
-23.76
-29.20
-34.41
-39.10
-43.44
-48.04
-53.69
-60.48
-67.33
-72.05
-72.13
-65.81
-53.01
-35.41
-15.82
2.84
18.30
29.26
35.20
36.05
31.98
23.47
11.47
-2.57
-17.00
-30.28
-41.39
-50.02
-56.41
-61.07
-64.28
-65.90
-65.51
-62.70
-57.59
-50.99
-44.22
-38.66
-35.21
-34.07
