1540451869.00
64.000000
-0.00
-0.00
-0.00
-0.00
-0.00
-0.00
-0.00
-0.00
-0.00
-0.00
0.00
0.01
0.01
-0.00
-0.03
-0.05
-0.05
0.00
0.13
0.36
0.66
1.01
1.37
1.72
2.06
2.40
2.79
3.24
3.80
4.42
5.06
5.66
6.20
6.68
7.15
7.68
8.31
9.14
10.09
11.04
11.88
12.56
13.14
13.76
14.65
15.96
17.91
20.32
22.90
25.38
27.58
29.57
31.68
34.32
37.81
42.54
48.15
54.10
59.83
64.97
69.58
74.14
79.34
85.71
93.76
103.00
112.62
121.73
129.77
136.75
143.30
150.75
157.77
166.64
177.95
191.79
206.97
220.57
228.25
225.36
208.53
176.87
132.76
80.05
23.07
-34.94
-92.44
-149.16
-205.23
-260.37
-313.74
-363.87
-409.83
-450.91
-486.50
-515.74
-537.23
-549.22
-549.96
-538.37
-514.21
-478.67
-433.88
-382.45
-327.02
-269.84
-212.63
-156.66
-102.95
-52.37
-5.90
35.58
71.43
101.35
125.50
144.38
158.69
169.15
176.37
180.75
182.57
182.07
179.51
175.23
169.65
163.18
156.15
148.81
141.30
133.69
126.02
118.33
110.69
103.16
95.80
88.68
81.83
75.25
68.95
62.95
57.25
51.86
46.78
42.03
37.59
33.45
29.61
26.07
22.81
19.83
17.11
14.67
12.48
10.54
8.83
7.35
6.07
4.97
4.05
3.27
2.62
2.09
1.65
1.30
1.01
0.79
0.61
0.47
0.36
0.28
0.23
0.20
0.20
0.20
0.19
0.15
0.08
-0.01
-0.10
-0.16
-0.17
-0.13
-0.06
0.00
0.03
0.00
-0.06
-0.13
-0.16
-0.12
-0.03
0.09
0.16
0.15
0.03
-0.17
-0.36
-0.45
-0.36
-0.12
0.19
0.39
0.36
0.04
-0.49
-1.01
-1.28
-1.15
-0.62
0.07
0.59
0.60
0.01
-1.02
-2.09
-2.72
-2.58
-1.70
-0.47
0.52
0.72
-0.07
-1.59
-3.20
-4.20
-4.14
-3.00
-1.26
0.40
1.30
0.91
-1.15
-4.99
-10.22
-15.62
-19.21
-18.84
-13.07
-2.25
11.47
24.63
33.89
37.34
35.15
29.17
21.73
14.57
8.33
2.85
-2.16
-6.56
-9.73
-11.02
-10.25
-7.96
-5.19
-3.03
-2.18
-2.59
-3.71
-4.68
-4.94
-4.30
-3.09
-1.88
-1.26
-1.54
-2.65
-4.27
-5.89
-7.05
-7.36
-6.58
-4.64
-1.64
2.09
6.07
9.71
12.48
14.00
14.14
13.02
10.88
8.09
4.96
1.79
-1.17
-3.65
-5.45
-6.48
-6.71
-6.24
-5.22
-3.87
-2.39
-0.98
0.24
1.15
1.66
1.72
1.21
0.12
-1.53
-3.57
-5.74
-7.79
-9.57
-11.21
-12.95
-15.00
-17.21
-18.96
-19.27
-17.15
-12.09
-4.31
5.21
15.11
23.98
30.82
35.13
36.85
36.22
33.62
29.46
24.24
18.54
13.02
8.27
4.73
2.52
1.47
1.16
1.15
1.14
1.02
0.81
0.53
0.08
-0.73
-2.06
-3.93
-6.16
-8.47
-10.55
-12.29
-13.73
-15.10
-16.69
-18.73
-21.32
-24.35
-27.41
-29.78
-30.57
-28.89
-24.24
-16.67
-6.96
3.68
13.83
22.30
28.32
31.67
32.54
31.34
28.59
24.77
20.42
16.08
12.29
9.44
7.68
6.89
6.71
6.76
6.70
6.41
5.91
5.31
4.73
4.21
3.68
2.98
1.90
0.21
-2.16
-5.11
-8.32
-11.35
-13.78
-15.43
-16.45
-17.27
-18.45
-20.41
-23.24
-26.57
-29.68
-31.66
-31.65
-29.12
-23.98
-16.67
-8.02
0.96
9.25
16.08
20.97
23.77
24.50
23.36
20.66
16.80
12.35
7.87
3.96
0.96
-0.95
-1.90
-2.14
-1.99
-1.69
-1.38
-1.10
-0.83
-0.54
-0.22
0.04
0.13
-0.09
-0.74
-1.85
-3.34
-5.00
-6.57
-7.83
-8.68
-9.20
-9.63
-10.26
-11.34
-12.99
-15.20
-17.78
-20.40
-22.55
-23.63
-22.98
-20.08
-14.81
-7.54
0.82
9.11
16.21
21.41
24.50
25.68
25.35
23.86
21.50
18.50
15.11
11.72
8.75
6.61
5.49
5.38
6.03
7.07
8.12
8.92
9.33
9.40
9.29
9.15
9.05
8.88
8.46
7.56
6.09
4.09
1.73
-0.78
-3.26
-5.57
-7.64
-9.42
-10.95
-12.32
-13.73
-15.45
-17.62
-20.16
-22.58
-24.12
-23.88
-21.17
-15.86
-8.40
0.20
8.71
16.01
21.41
24.72
26.15
26.07
24.82
22.60
19.56
15.87
11.90
8.18
5.22
3.39
2.73
2.92
3.46
3.92
4.10
4.09
4.15
4.48
5.07
5.67
5.88
5.36
3.99
1.90
-0.57
-3.10
-5.38
-7.29
-8.88
-10.28
-11.76
-13.53
-15.78
-18.50
-21.41
-23.93
-25.29
-24.72
-21.78
-16.46
-9.29
-1.20
6.79
13.75
19.07
22.48
23.98
23.79
22.20
19.54
16.18
12.48
8.80
5.47
2.72
0.66
-0.70
-1.52
-1.97
-2.21
-2.33
-2.30
-2.05
-1.58
-1.02
-0.63
-0.75
-1.59
-3.09
-4.97
-6.77
-8.13
-8.90
-9.29
-9.67
-10.48
-11.99
-14.28
-17.15
-20.19
-22.82
-24.36
-24.10
-21.52
-16.53
-9.59
-1.60
6.26
13.01
18.02
21.11
22.42
22.19
20.68
18.11
14.75
10.91
6.98
3.31
0.23
-2.06
-3.37
-3.62
-2.89
-1.46
0.21
1.61
2.32
2.18
1.32
-0.04
-1.64
-3.41
-5.32
-7.38
-9.50
-11.50
-13.31
-14.97
-16.78
-19.08
-22.03
-25.28
-28.06
-29.27
-27.98
-23.82
-17.17
-9.02
-0.60
7.04
13.26
17.88
20.91
22.42
22.43
20.93
18.11
14.34
10.19
6.22
2.85
0.28
-1.54
-2.74
-3.50
-3.94
-4.16
-4.21
-4.16
-4.12
-4.14
-4.28
-4.56
-5.00
-5.63
-6.47
-7.59
-9.09
-11.06
-13.56
-16.50
-19.60
-22.30
-23.80
-23.34
-20.45
-15.15
-8.05
-0.16
7.43
13.88
18.74
21.89
23.34
23.10
21.17
17.68
13.01
7.82
2.93
-0.95
-3.39
-4.38
-4.22
-3.43
-2.54
-2.01
-2.05
-2.62
-3.47
-4.29
-4.89
-5.29
-5.75
-6.62
-8.16
-10.48
-13.52
-17.04
-20.64
-23.72
-25.50
-25.17
-22.19
-16.52
-8.79
-0.10
8.28
15.36
20.60
23.88
25.34
25.11
23.30
20.08
15.81
11.06
6.52
2.85
0.44
-0.64
-0.60
0.19
1.25
2.19
2.66
2.51
1.75
0.54
-0.89
-2.36
-3.82
-5.47
-7.62
-10.60
-14.51
-19.14
-23.85
-27.72
-29.70
-28.94
-25.08
-18.35
-9.57
0.07
9.33
17.17
22.92
26.31
27.31
26.07
22.85
18.03
12.18
6.02
0.32
-4.22
-7.18
-8.50
-8.44
-7.50
-6.22
-5.05
-4.23
-3.84
-3.90
-4.44
-5.52
-7.18
-9.33
-11.85
-14.54
-17.29
-20.13
-23.09
-25.99
-28.30
-29.10
-27.40
-22.59
-14.76
-4.81
5.78
15.48
23.13
28.18
30.63
30.83
29.23
26.26
22.34
17.97
13.72
10.15
7.66
6.43
6.33
7.03
8.16
9.37
10.39
11.05
11.22
10.77
9.68
7.97
5.82
3.44
1.04
-1.30
-3.59
-6.08
-9.05
-12.77
-17.26
-22.07
-26.23
-28.43
-27.42
-22.52
-13.99
-3.03
8.53
18.89
26.75
31.60
33.60
33.27
31.19
27.84
23.67
19.21
15.04
11.74
9.66
8.81
8.88
9.41
10.00
10.47
10.83
11.19
11.56
11.72
11.28
9.90
7.43
4.08
0.33
-3.25
-6.26
-8.59
-10.44
-12.25
-14.46
-17.35
-20.89
-24.71
-28.07
-30.01
-29.58
-26.14
-19.53
-10.25
0.59
11.57
21.25
28.51
32.75
33.97
32.65
29.52
25.38
20.88
16.53
12.70
9.68
7.72
6.90
7.15
8.13
9.36
10.37
10.85
10.74
10.19
9.41
8.53
7.47
6.02
3.96
1.21
-2.00
-5.29
-8.21
-10.47
-12.08
-13.36
-14.80
-16.85
-19.72
-23.20
-26.63
-29.04
-29.41
-26.94
-21.41
-13.22
-3.41
6.61
15.46
22.13
26.14
27.62
27.05
25.08
22.29
19.14
15.91
12.83
10.14
8.10
6.92
6.66
7.19
8.20
9.32
10.21
10.69
10.77
10.55
10.13
9.56
8.75
7.57
5.88
3.66
1.05
-1.70
-4.34
-6.71
-8.78
-10.68
-12.63
-14.89
-17.62
-20.88
-24.49
-28.03
-30.83
-32.03
-30.88
-26.91
-20.21
-11.44
-1.72
7.62
15.40
20.82
23.64
24.07
22.62
19.88
16.40
12.62
8.94
5.74
3.40
2.22
2.27
3.39
5.17
7.06
8.62
9.61
9.97
9.82
9.34
8.63
7.71
6.54
4.98
2.95
0.46
-2.37
-5.26
-7.92
-10.11
-11.82
-13.21
-14.62
-16.35
-18.55
-21.21
-24.11
-26.92
-29.14
-30.24
-29.60
-26.71
-21.35
-13.78
-4.76
4.56
12.94
19.36
23.24
24.55
23.70
21.33
18.12
14.62
11.21
8.16
5.71
4.07
3.44
3.88
5.22
7.10
9.00
10.47
11.25
11.40
11.16
10.81
10.46
9.99
9.13
7.64
5.49
2.90
0.31
-1.87
-3.43
-4.39
-4.98
-5.50
-6.21
-7.29
-8.87
-10.98
-13.57
-16.34
-18.66
-19.71
-18.61
-14.88
-8.61
-0.64
7.76
15.21
20.64
23.53
23.95
22.37
19.41
15.66
11.56
7.45
3.58
0.22
-2.35
-3.89
-4.34
-3.83
-2.73
-1.52
-0.62
-0.25
-0.38
-0.82
-1.35
-1.91
-2.59
-3.61
-5.13
-7.16
-9.50
-11.85
-13.96
-15.68
-17.07
-18.30
-19.58
-21.06
-22.77
-24.67
-26.63
-28.41
-29.61
-29.73
-28.20
-24.61
-18.88
-11.36
-2.89
5.48
12.69
17.99
21.03
21.87
20.87
18.47
15.13
11.24
7.20
3.41
0.33
-1.70
-2.49
-2.18
-1.19
-0.04
0.78
1.09
0.96
0.67
0.43
0.25
-0.08
-0.88
-2.29
-4.21
-6.23
-7.98
-9.20
-9.99
-10.69
-11.77
-13.56
-16.12
-19.19
-22.24
-24.56
-25.44
-24.33
-20.96
-15.50
-8.51
-0.83
6.63
13.07
17.92
20.83
21.69
20.60
17.85
13.96
9.53
5.21
1.51
-1.22
-2.84
-3.32
-2.80
-1.52
0.19
1.91
3.28
4.02
4.06
3.42
2.24
0.69
-1.05
-2.80
-4.36
-5.64
-6.66
-7.62
-8.82
-10.57
-13.01
-16.04
-19.19
-21.69
-22.60
-21.09
-16.76
-9.78
-1.06
8.09
16.22
22.22
25.52
26.20
24.75
21.83
18.05
13.89
9.73
5.94
2.90
0.89
0.03
0.23
1.15
2.33
3.27
3.65
3.34
2.44
1.19
-0.18
-1.59
-3.04
-4.65
-6.53
-8.68
-10.99
-13.29
-15.51
-17.70
-19.99
-22.43
-24.71
-26.12
-25.74
-22.75
-16.88
-8.63
0.81
9.97
17.57
22.89
25.86
26.84
26.33
24.68
22.10
18.76
14.94
11.09
7.72
5.27
3.90
3.51
3.82
4.52
5.31
5.98
6.35
6.24
5.47
3.97
1.81
-0.78
-3.45
-5.87
-7.81
-9.27
-10.44
-11.72
-13.55
-16.21
-19.68
-23.49
-26.74
-28.32
-27.21
-22.95
-15.77
-6.65
3.02
11.80
18.64
22.97
24.74
24.22
21.83
18.09
13.59
8.97
4.84
1.67
-0.28
-1.02
-0.78
0.15
1.48
2.96
4.37
5.52
6.23
6.34
5.76
4.51
2.69
0.49
-1.88
-4.20
-6.29
-8.06
-9.52
-10.81
-12.19
-13.94
-16.25
-19.05
-21.90
-23.95
-24.19
-21.81
-16.52
-8.83
0.09
8.74
15.80
20.51
22.72
22.82
21.40
18.98
15.93
12.52
9.04
5.85
3.32
1.78
1.33
1.86
3.05
4.55
6.04
7.33
8.36
9.16
9.73
9.95
9.63
8.60
6.81
4.43
1.81
-0.65
-2.70
-4.32
-5.72
-7.30
-9.36
-12.01
-15.07
-18.00
-20.03
-20.31
-18.23
-13.59
-6.78
1.28
9.43
16.57
21.90
25.09
26.09
25.11
22.46
18.55
13.90
9.15
4.96
1.86
0.10
-0.40
0.07
1.04
2.16
3.18
4.03
4.73
5.34
5.82
6.05
5.83
4.98
3.48
1.44
-0.83
-3.02
-4.89
-6.39
-7.66
-9.02
-10.77
-13.13
-16.01
-19.00
-21.37
-22.21
-20.68
-16.39
-9.51
-0.92
8.12
16.23
22.33
25.89
26.91
25.79
23.03
19.13
14.49
9.52
4.73
0.67
-2.14
-3.44
-3.30
-2.14
-0.50
1.14
2.54
3.63
4.45
4.97
5.02
4.38
2.95
0.89
-1.48
-3.74
-5.63
-7.12
-8.43
-9.90
-11.85
-14.42
-17.56
-20.88
-23.78
-25.41
-24.93
-21.73
-15.68
-7.34
2.15
11.38
19.03
24.21
26.63
26.50
24.35
20.81
16.49
11.88
7.39
3.33
-0.01
-2.46
-3.89
-4.32
-3.86
-2.78
-1.40
-0.07
0.92
1.42
1.36
0.82
-0.14
-1.34
-2.69
-4.12
-5.61
-7.21
-8.99
-11.08
-13.62
-16.61
-19.83
-22.74
-24.52
-24.25
-21.24
-15.32
-7.08
2.33
11.41
18.82
23.66
25.68
25.15
22.64
18.87
14.42
9.76
5.20
0.99
-2.64
-5.43
-7.12
-7.56
-6.77
-5.07
-2.98
-1.03
0.30
0.86
0.69
0.01
-0.99
-2.19
-3.60
-5.18
-6.94
-8.89
-11.09
-13.67
-16.69
-19.96
-22.93
-24.70
-24.28
-21.00
-14.85
-6.57
2.53
10.96
17.53
21.63
23.25
22.81
20.88
17.94
14.33
10.30
6.11
2.13
-1.19
-3.46
-4.45
-4.23
-3.16
-1.76
-0.61
-0.14
-0.50
-1.65
-3.34
-5.31
-7.40
-9.53
-11.70
-13.96
-16.39
-19.08
-22.17
-25.76
-29.81
-33.99
-37.59
-39.69
-39.43
-36.41
-30.91
-23.90
-16.74
-10.80
-7.01
-5.74
-6.86
-9.89
-14.28
-19.48
-25.03
-30.46
-35.19
-38.61
-40.04
-38.96
-35.10
-28.61
-20.03
-10.19
-0.04
9.65
18.32
25.72
31.75
36.39
39.57
41.23
41.36
39.99
37.30
33.43
28.61
23.12
17.49
12.52
9.18
8.45
10.80
16.08
23.35
31.21
38.19
43.15
45.55
45.37
42.93
38.71
33.19
26.86
20.26
13.98
8.60
4.59
2.15
1.21
1.43
2.32
3.33
4.07
4.29
3.94
3.11
1.91
0.41
-1.36
-3.40
-5.67
-8.07
-10.49
-12.90
-15.36
-17.95
-20.52
-22.65
-23.55
-22.33
-18.35
-11.49
-2.28
8.18
18.57
27.61
34.38
38.36
39.51
38.14
34.81
30.20
24.94
19.61
14.64
10.42
7.27
5.38
4.80
5.28
6.33
7.30
7.65
7.07
5.58
3.48
1.11
-1.20
-3.28
-5.15
-6.95
-8.89
-11.21
-14.12
-17.72
-21.90
-26.23
-29.97
-32.10
-31.66
-27.97
-21.02
-11.52
-0.80
9.49
17.90
23.48
25.96
25.66
23.24
19.42
14.84
10.01
5.29
1.05
-2.42
-4.85
-6.12
-6.25
-5.43
-3.97
-2.20
-0.49
0.89
1.70
1.87
1.38
0.24
-1.48
-3.76
-6.55
-9.73
-13.16
-16.67
-20.12
-23.33
-26.05
-27.77
-27.84
-25.50
-20.29
-12.35
-2.53
7.73
16.83
23.51
27.24
28.17
26.96
24.38
21.00
17.10
12.80
8.21
3.67
-0.37
-3.42
-5.20
-5.75
-5.44
-4.79
-4.28
-4.20
-4.64
-5.52
-6.75
-8.21
-9.85
-11.61
-13.42
-15.27
-17.23
-19.44
-22.03
-24.96
-27.86
-30.04
-30.56
-28.64
-23.85
-16.43
-7.24
2.49
11.52
18.92
24.24
27.42
28.58
27.86
25.37
21.32
16.12
10.52
5.42
1.66
-0.21
-0.18
1.25
3.32
5.19
6.25
6.28
5.35
3.80
2.00
0.19
-1.61
-3.57
-5.94
-8.91
-12.54
-16.62
-20.73
-24.19
-26.24
-26.12
-23.29
-17.64
-9.59
-0.09
9.60
18.17
24.62
28.41
29.53
28.31
25.31
21.11
16.23
11.17
6.43
2.53
-0.07
-1.13
-0.80
0.40
1.75
2.56
2.45
1.45
-0.10
-1.75
-3.17
-4.29
-5.28
-6.46
-8.15
-10.62
-13.96
-18.00
-22.22
-25.76
-27.49
-26.43
-22.07
-14.58
-4.83
5.80
15.85
24.14
29.92
32.99
33.50
31.84
28.50
23.96
18.78
13.50
8.75
5.10
2.94
2.38
3.14
4.61
6.02
6.71
6.30
4.80
2.53
-0.09
-2.72
-5.23
-7.69
-10.30
-13.27
-16.75
-20.74
-25.11
-29.55
-33.50
-36.17
-36.65
-34.16
-28.37
-19.62
-8.99
1.97
11.62
18.65
22.38
22.84
20.60
16.56
11.69
6.77
2.37
-1.25
-3.94
-5.68
-6.43
-6.17
-4.96
-2.98
-0.63
1.62
3.31
4.11
3.94
2.91
1.30
-0.62
-2.64
-4.67
-6.67
-8.66
-10.67
-12.73
-14.93
-17.35
-19.95
-22.47
-24.34
-24.72
-22.77
-17.92
-10.23
-0.43
10.14
19.94
27.64
32.47
34.27
33.45
30.67
26.61
21.83
16.77
11.91
7.74
4.79
3.41
3.64
5.11
7.23
9.31
10.90
11.79
12.01
11.69
10.88
9.50
7.43
4.66
1.32
-2.21
-5.45
-8.07
-9.92
-11.22
-12.40
-13.96
-16.20
-19.07
-22.11
-24.47
-25.19
-23.38
-18.64
-11.15
-1.75
8.26
17.46
24.69
29.30
31.11
30.42
27.69
23.49
18.37
12.92
7.76
3.48
0.55
-0.87
-0.86
0.17
1.74
3.36
4.73
5.80
6.65
7.47
8.29
9.00
9.33
8.99
7.81
5.81
3.26
0.51
-2.14
-4.58
-6.82
-9.02
-11.33
-13.75
-16.09
-17.89
-18.48
-17.14
-13.34
-6.99
1.43
10.85
19.90
27.27
32.08
34.01
33.31
30.53
26.32
21.20
15.62
9.98
4.72
0.32
-2.87
-4.73
-5.42
-5.33
-4.90
-4.40
-3.93
-3.46
-2.96
-2.57
-2.57
-3.32
-5.04
-7.67
-10.84
-13.98
-16.56
-18.28
-19.28
-20.03
-21.20
-23.30
-26.45
-30.14
-33.35
-34.80
-33.40
-28.63
-20.87
-11.20
-1.16
7.75
14.49
18.62
20.28
19.96
18.25
15.69
12.66
9.42
6.11
2.87
-0.13
-2.65
-4.39
-5.10
-4.67
-3.29
-1.37
0.48
1.73
2.02
1.29
-0.24
-2.22
-4.34
-6.37
-8.27
-10.17
-12.25
-14.70
-17.52
-20.43
-22.90
-24.15
-23.41
-20.25
-14.72
-7.45
0.56
8.24
14.74
19.62
22.78
24.26
24.13
22.43
19.29
15.03
10.24
5.62
1.82
-0.77
-2.08
-2.30
-1.76
-0.85
0.04
0.54
0.40
-0.50
-2.01
-3.80
-5.45
-6.70
-7.58
-8.44
-9.79
-12.02
-15.16
-18.69
-21.70
-23.07
-21.93
-17.90
-11.32
-3.12
5.45
13.20
19.27
23.30
25.29
25.49
24.13
21.40
17.55
12.93
8.11
3.75
0.41
-1.61
-2.39
-2.31
-1.88
-1.54
-1.54
-1.94
-2.68
-3.69
-4.86
-6.11
-7.40
-8.75
-10.27
-12.19
-14.70
-17.80
-21.09
-23.76
-24.76
-23.17
-18.64
-11.55
-2.93
5.87
13.64
19.61
23.56
25.63
26.05
24.98
22.48
18.67
13.87
8.68
3.78
-0.18
-2.88
-4.29
-4.68
-4.42
-3.91
-3.46
-3.25
-3.38
-3.81
-4.47
-5.30
-6.27
-7.58
-9.48
-12.21
-15.85
-20.12
-24.34
-27.56
-28.81
-27.35
-23.01
-16.23
-8.00
0.42
7.88
13.53
17.02
18.32
17.69
15.41
11.79
7.20
2.12
-2.80
-6.86
-9.47
-10.34
-9.56
-7.59
-5.06
-2.56
-0.49
0.98
1.86
2.25
2.22
1.85
1.17
0.16
-1.26
-3.26
-5.97
-9.43
-13.32
-16.98
-19.42
-19.69
-17.17
-11.84
-4.38
4.11
12.35
19.27
24.21
26.95
27.58
26.37
23.66
19.77
15.11
10.22
5.74
2.36
0.56
0.47
1.78
3.81
5.72
6.87
6.96
6.14
4.83
3.49
2.37
1.35
0.14
-1.61
-4.09
-7.26
-10.89
-14.65
-18.14
-20.85
-22.13
-21.29
-17.79
-11.52
-3.08
6.39
15.39
22.59
27.16
28.91
28.20
25.67
21.94
17.48
12.65
7.80
3.40
-0.03
-2.04
-2.45
-1.53
0.10
1.68
2.60
2.62
1.92
0.87
-0.15
-1.02
-1.83
-2.88
-4.45
-6.69
-9.60
-13.05
-16.76
-20.34
-23.21
-24.67
-23.99
-20.64
-14.53
-6.25
3.10
12.14
19.59
24.68
27.21
27.46
25.95
23.11
19.29
14.74
9.83
5.07
1.09
-1.55
-2.56
-2.01
-0.31
1.98
4.23
5.99
6.95
7.04
6.31
4.92
3.05
0.86
-1.57
-4.16
-6.87
-9.68
-12.46
-15.02
-16.95
-17.66
-16.49
-12.92
-6.78
1.51
10.93
20.11
27.64
32.53
34.39
33.52
30.62
26.50
21.76
16.78
11.77
7.04
3.04
0.25
-0.96
-0.61
0.82
2.57
3.89
4.24
3.48
1.82
-0.38
-2.74
-4.99
-7.03
-8.83
-10.44
-11.96
-13.58
-15.55
-18.10
-21.33
-24.96
-28.28
-30.19
-29.54
-25.58
-18.39
-8.98
1.04
9.94
16.50
20.27
21.49
20.80
18.85
16.07
12.71
8.95
5.11
1.61
-1.09
-2.66
-3.02
-2.42
-1.32
-0.25
0.36
0.31
-0.34
-1.41
-2.72
-4.12
-5.64
-7.30
-9.10
-11.00
-12.97
-15.11
-17.59
-20.53
-23.80
-26.83
-28.68
-28.32
-25.05
-18.83
-10.37
-0.89
8.26
16.02
21.79
25.40
26.89
26.37
23.98
19.96
14.84
9.40
4.56
1.10
-0.55
-0.49
0.81
2.65
4.39
5.57
6.00
5.70
4.83
3.57
2.14
0.65
-0.85
-2.44
-4.28
-6.56
-9.45
-13.00
-17.10
-21.36
-25.14
-27.62
-27.94
-25.56
-20.44
-13.17
-4.80
3.46
10.59
15.99
19.47
21.13
21.09
19.45
16.32
11.97
6.92
1.91
-2.24
-4.92
-5.93
-5.50
-4.22
-2.79
-1.74
-1.28
-1.32
-1.57
-1.73
-1.70
-1.56
-1.58
-2.03
-3.18
-5.18
-8.10
-11.83
-16.06
-20.11
-22.99
-23.60
-21.09
-15.28
-6.77
3.12
12.75
20.70
26.11
28.80
29.09
27.53
24.63
20.78
16.32
11.66
7.32
3.81
1.48
0.36
0.14
0.25
0.11
-0.66
-2.13
-4.01
-5.83
-7.13
-7.73
-7.70
-7.42
-7.44
-8.27
-10.28
-13.59
-17.99
-22.86
-27.24
-29.92
-29.76
-26.07
-18.91
-9.16
1.69
12.00
20.48
26.48
29.90
31.00
30.06
27.30
22.95
17.45
11.55
6.19
2.23
0.17
-0.02
1.18
3.05
4.87
6.08
6.36
5.57
3.83
1.39
-1.40
-4.19
-6.81
-9.26
-11.69
-14.26
-17.09
-20.13
-23.11
-25.59
-26.91
-26.41
-23.53
-18.09
-10.53
-1.82
6.71
13.80
18.61
20.89
20.89
19.07
15.92
11.77
6.96
1.93
-2.71
-6.30
-8.32
-8.65
-7.57
-5.64
-3.48
-1.56
-0.12
0.73
0.92
0.33
-1.14
-3.49
-6.48
-9.68
-12.56
-14.74
-16.08
-16.70
-16.98
-17.34
-18.11
-19.34
-20.75
-21.75
-21.52
-19.34
-14.83
-8.13
0.06
8.69
16.69
23.20
27.73
30.10
30.34
28.56
25.01
20.07
14.32
8.52
3.37
-0.53
-2.89
-3.73
-3.26
-1.90
-0.09
1.75
3.32
4.50
5.25
5.63
5.64
5.23
4.34
2.96
1.19
-0.70
-2.43
-3.82
-4.79
-5.45
-5.99
-6.66
-7.67
-9.21
-11.29
-13.63
-15.66
-16.56
-15.53
-12.08
-6.30
1.10
9.02
16.25
21.86
25.32
26.56
25.82
23.50
20.07
15.93
11.52
7.29
3.74
1.28
0.21
0.54
1.98
4.06
6.23
8.11
9.54
10.58
11.33
11.82
11.92
11.36
9.97
7.77
4.97
1.99
-0.77
-3.01
-4.63
-5.72
-6.53
-7.32
-8.36
-9.79
-11.58
-13.47
-14.96
-15.37
-14.07
-10.73
-5.47
1.06
7.87
13.94
18.48
21.16
22.03
21.43
19.69
17.09
13.85
10.16
6.29
2.59
-0.59
-3.01
-4.57
-5.35
-5.43
-4.90
-3.78
-2.13
-0.06
2.15
4.10
5.36
5.67
4.97
3.49
1.63
-0.25
-1.91
-3.32
-4.60
-5.91
-7.41
-9.16
-11.21
-13.51
-15.87
-17.91
-19.05
-18.60
-16.01
-11.16
-4.49
3.06
10.28
16.11
19.82
21.28
20.78
18.85
16.00
12.60
8.90
5.07
1.40
-1.73
-3.94
-5.03
-5.12
-4.52
-3.66
-2.80
-2.01
-1.22
-0.38
0.45
1.04
1.20
0.83
0.05
-0.94
-1.96
-2.93
-3.91
-5.10
-6.70
-8.84
-11.54
-14.58
-17.49
-19.60
-20.18
-18.70
-15.08
-9.73
-3.47
2.75
8.17
12.31
15.03
16.35
16.37
15.18
12.96
9.94
6.52
3.14
0.15
-2.21
-3.88
-4.93
-5.43
-5.46
-5.03
-4.18
-3.06
-1.90
-0.98
-0.55
-0.66
-1.21
-2.01
-2.85
-3.67
-4.51
-5.52
-6.87
-8.66
-10.90
-13.48
-16.15
-18.46
-19.85
-19.73
-17.65
-13.53
-7.75
-1.09
5.52
11.18
15.31
17.67
18.29
17.45
15.53
12.92
10.04
7.20
4.62
2.42
0.64
-0.71
-1.56
-1.87
-1.65
-1.03
-0.24
0.40
0.65
0.45
-0.10
-0.81
-1.53
-2.22
-2.90
-3.65
-4.57
-5.77
-7.38
-9.51
-12.14
-15.00
-17.48
-18.78
-18.17
-15.24
-10.20
-3.78
2.92
8.89
13.43
16.28
17.55
17.47
16.28
14.15
11.23
7.78
4.15
0.75
-2.06
-4.07
-5.25
-5.68
-5.50
-4.88
-3.99
-2.98
-2.02
-1.27
-0.84
-0.84
-1.28
-2.08
-3.12
-4.26
-5.43
-6.70
-8.23
-10.17
-12.53
-15.05
-17.22
-18.34
-17.78
-15.21
-10.74
-4.95
1.29
7.07
11.65
14.66
16.07
16.09
15.01
13.09
10.53
7.55
4.50
1.79
-0.20
-1.27
-1.47
-1.09
-0.52
-0.12
-0.09
-0.49
-1.25
-2.24
-3.34
-4.42
-5.37
-6.14
-6.76
-7.39
-8.27
-9.68
-11.75
-14.37
-17.07
-19.14
-19.75
-18.27
-14.49
-8.67
-1.61
5.71
12.30
17.44
20.77
22.24
22.03
20.44
17.81
14.53
11.02
7.74
5.11
3.47
2.95
3.49
4.81
6.57
8.43
10.15
11.58
12.66
13.29
13.39
12.86
11.71
10.11
8.27
6.41
4.53
2.56
0.36
-1.99
-4.14
-5.49
-5.41
-3.48
0.26
5.36
11.11
16.73
21.56
25.09
27.02
27.14
25.39
21.87
16.93
11.13
5.18
-0.23
-4.56
-7.55
-9.21
-9.78
-9.61
-9.06
-8.43
-7.94
-7.67
-7.69
-7.95
-8.43
-9.10
-9.96
-11.05
-12.45
-14.25
-16.48
-19.10
-21.87
-24.35
-25.92
-25.91
-23.83
-19.53
-13.40
-6.26
0.83
6.90
11.33
13.97
14.97
14.64
13.19
10.74
7.43
3.60
-0.21
-3.38
-5.46
-6.37
-6.44
-6.23
-6.28
-6.77
-7.58
-8.35
-8.73
-8.65
-8.24
-7.79
-7.62
-7.92
-8.81
-10.35
-12.56
-15.30
-18.17
-20.42
-21.14
-19.54
-15.33
-8.90
-1.18
6.63
13.57
19.03
22.86
25.11
25.82
24.96
22.55
18.77
14.09
9.23
4.98
1.94
0.41
0.25
1.07
2.25
3.22
3.57
3.07
1.79
-0.11
-2.31
-4.54
-6.66
-8.73
-10.96
-13.62
-16.85
-20.49
-23.95
-26.28
-26.48
-23.81
-18.15
-10.11
-0.89
8.09
15.61
20.90
23.70
24.17
22.62
19.44
15.04
9.91
4.64
-0.10
-3.73
-5.88
-6.57
-6.10
-5.00
-3.86
-3.14
-3.07
-3.70
-4.79
-6.09
-7.36
-8.52
-9.69
-11.13
-13.05
-15.59
-18.63
-21.81
-24.56
-26.19
-26.03
-23.55
-18.61
-11.51
-3.05
5.64
13.42
19.39
23.15
24.75
24.57
23.10
20.82
18.10
15.24
12.53
10.24
8.67
8.06
8.45
9.72
11.53
13.48
15.13
16.24
16.74
16.72
16.36
15.77
14.99
14.00
12.75
11.23
9.45
7.42
5.11
2.47
-0.48
-3.46
-5.92
-7.03
-5.95
-2.19
4.20
12.40
21.14
28.97
34.76
37.89
38.31
36.37
32.64
27.72
22.14
16.46
11.19
6.83
3.77
2.15
1.81
2.33
3.07
3.47
3.20
2.26
0.95
-0.37
-1.43
-2.27
-3.18
-4.49
-6.38
-8.75
-11.26
-13.50
-15.19
-16.33
-17.19
-18.18
-19.67
-21.82
-24.45
-27.02
-28.74
-28.76
-26.42
-21.45
-14.13
-5.26
4.04
12.50
19.10
23.15
24.47
23.35
20.38
16.29
11.81
7.51
3.82
1.08
-0.49
-0.83
-0.08
1.34
2.84
3.86
4.08
3.56
2.66
1.74
0.97
0.19
-0.94
-2.69
-5.07
-7.82
-10.52
-12.86
-14.74
-16.29
-17.73
-19.27
-21.07
-23.19
-25.63
-28.21
-30.47
-31.64
-30.85
-27.43
-21.26
-12.96
-3.71
5.03
12.04
16.61
18.59
18.29
16.19
12.76
8.50
3.94
-0.30
-3.60
-5.47
-5.78
-4.79
-3.07
-1.24
0.19
1.03
1.38
1.52
1.70
2.03
2.44
2.65
2.35
1.30
-0.54
-2.94
-5.46
-7.61
-9.03
-9.62
-9.61
-9.44
-9.62
-10.56
-12.36
-14.77
-17.20
-18.82
-18.76
-16.44
-11.74
-5.08
2.64
10.31
16.92
21.81
24.66
25.56
24.78
22.73
19.84
16.57
13.34
10.46
8.19
6.68
6.02
6.18
7.03
8.31
9.68
10.78
11.34
11.30
10.73
9.85
8.80
7.65
6.29
4.57
2.35
-0.35
-3.32
-6.23
-8.72
-10.58
-11.81
-12.64
-13.45
-14.59
-16.26
-18.31
-20.32
-21.68
-21.74
-20.04
-16.39
-10.96
-4.22
3.14
10.29
16.46
20.99
23.45
23.75
22.08
18.95
14.99
10.86
7.10
4.05
1.88
0.61
0.18
0.47
1.34
2.57
3.91
5.12
5.99
6.46
6.54
6.35
5.95
5.34
4.44
3.15
1.44
-0.61
-2.78
-4.83
-6.57
-8.00
-9.28
-10.67
-12.42
-14.63
-17.26
-20.01
-22.47
-24.02
-24.09
-22.18
-18.15
-12.26
-5.21
2.05
8.61
13.77
17.22
18.94
19.11
17.95
15.65
12.46
8.73
5.00
1.87
-0.17
-0.87
-0.35
1.00
2.62
4.00
4.83
5.06
4.83
4.36
3.82
3.29
2.72
2.00
1.04
-0.18
-1.61
-3.09
-4.46
-5.56
-6.28
-6.61
-6.65
-6.56
-6.62
-7.04
-7.88
-8.92
-9.66
-9.39
-7.48
-3.61
2.08
8.93
16.03
22.39
27.19
29.92
30.43
28.87
25.62
21.22
16.21
11.16
6.50
2.62
-0.19
-1.78
-2.19
-1.64
-0.55
0.66
1.70
2.48
3.14
3.80
4.47
4.97
4.94
4.10
2.37
-0.05
-2.74
-5.21
-7.09
-8.22
-8.70
-8.88
-9.18
-10.00
-11.55
-13.80
-16.40
-18.76
-20.12
-19.79
-17.35
-12.85
-6.84
-0.20
6.06
11.15
14.59
16.23
16.20
14.72
12.04
8.47
4.39
0.30
-3.34
-6.17
-8.02
-8.92
-9.04
-8.57
-7.71
-6.63
-5.52
-4.54
-3.86
-3.62
-3.91
-4.78
-6.15
-7.90
-9.78
-11.53
-12.91
-13.82
-14.32
-14.67
-15.23
-16.36
-18.23
-20.71
-23.26
-25.04
-25.11
-22.74
-17.73
-10.59
-2.36
5.63
12.23
16.75
19.09
19.60
18.76
16.99
14.51
11.46
8.03
4.53
1.42
-0.87
-2.08
-2.27
-1.71
-0.82
0.08
0.83
1.43
1.90
2.17
2.07
1.39
0.06
-1.75
-3.69
-5.32
-6.43
-7.08
-7.68
-8.80
-10.88
-14.04
-17.95
-21.88
-24.87
-26.01
-24.67
-20.66
-14.30
-6.38
2.01
9.78
16.01
20.13
22.02
21.91
20.27
17.61
14.42
11.05
7.73
4.65
2.00
-0.01
-1.21
-1.58
-1.23
-0.45
0.49
1.34
1.95
2.23
2.09
1.40
0.06
-1.90
-4.29
-6.69
-8.71
-10.05
-10.74
-11.17
-11.90
-13.48
-16.17
-19.77
-23.51
-26.30
-26.99
-24.81
-19.62
-12.02
-3.18
5.51
12.81
17.88
20.39
20.40
18.26
14.46
9.58
4.21
-1.08
-5.80
-9.63
-12.48
-14.43
-15.70
-16.55
-17.20
-17.85
-18.61
-19.59
-20.92
-22.73
-25.09
-27.99
-31.33
-34.91
-38.53
-41.99
-45.11
-47.71
-49.61
-50.67
-50.81
-50.08
-48.44
-45.72
-41.40
-34.75
-25.05
-12.01
3.91
21.46
38.83
54.15
66.01
73.65
77.09
76.85
73.75
68.67
62.44
55.71
49.06
42.88
37.52
33.22
30.09
28.06
26.89
26.20
25.60
24.81
23.70
22.31
20.74
18.98
16.96
14.55
11.70
8.54
5.29
2.21
-0.60
-3.31
-6.27
-9.82
-14.02
-18.39
-21.95
-23.44
-21.79
-16.59
-8.37
1.51
11.28
19.30
24.51
26.64
26.02
23.33
19.27
14.43
9.25
4.19
-0.29
-3.70
-5.70
-6.23
-5.50
-3.97
-2.13
-0.41
0.96
1.93
2.53
2.80
2.76
2.39
1.70
0.71
-0.48
-1.80
-3.21
-4.79
-6.66
-9.01
-11.88
-15.06
-17.96
-19.72
-19.44
-16.48
-10.83
-3.15
5.33
13.26
19.50
23.41
24.95
24.38
22.17
18.70
14.32
9.36
4.27
-0.41
-4.08
-6.26
-6.69
-5.40
-2.74
0.73
4.32
7.39
9.43
10.17
9.63
8.05
5.82
3.36
1.00
-1.09
-2.92
-4.71
-6.78
-9.46
-12.88
-16.80
-20.56
-23.14
-23.57
-21.16
-15.91
-8.48
-0.08
7.95
14.47
18.89
21.14
21.58
20.70
18.90
16.42
13.30
9.63
5.70
1.97
-0.99
-2.72
-3.03
-2.12
-0.40
1.57
3.31
4.47
4.87
4.42
3.12
1.04
-1.66
-4.73
-7.95
-11.16
-14.37
-17.66
-21.05
-24.35
-27.00
-28.20
-27.16
-23.42
-17.07
-8.80
0.22
8.79
15.88
20.91
23.73
24.52
23.62
21.38
18.12
14.09
9.63
5.17
1.19
-1.84
-3.63
-4.19
-3.77
-2.82
-1.82
-1.13
-0.91
-1.14
-1.68
-2.41
-3.27
-4.36
-5.81
-7.83
-10.49
-13.72
-17.26
-20.61
-23.12
-24.07
-22.81
-18.94
-12.45
-3.90
5.68
14.94
22.60
27.73
30.00
29.61
27.10
23.10
18.19
12.92
7.80
3.39
0.16
-1.62
-2.02
-1.46
-0.51
0.26
0.52
0.17
-0.67
-1.83
-3.23
-4.82
-6.68
-8.88
-11.55
-14.70
-18.29
-22.04
-25.38
-27.51
-27.56
-24.83
-19.13
-10.94
-1.35
8.28
16.69
23.03
26.98
28.58
28.12
25.90
22.24
17.61
12.60
7.94
4.26
1.98
1.14
1.43
2.35
3.31
3.86
3.74
2.95
1.66
0.12
-1.44
-2.90
-4.40
-6.25
-8.85
-12.42
-16.75
-21.10
-24.29
-25.08
-22.57
-16.67
-8.11
1.79
11.52
19.88
26.18
30.21
32.04
31.75
29.42
25.22
19.57
13.26
7.30
2.72
0.20
-0.18
1.07
3.01
4.66
5.27
4.62
2.93
0.71
-1.54
-3.52
-5.21
-6.82
-8.64
-10.97
-14.07
-17.99
-22.45
-26.75
-29.74
-30.14
-26.94
-19.90
-9.78
1.82
12.97
22.00
27.92
30.59
30.43
28.09
24.24
19.41
14.09
8.78
4.04
0.34
-1.95
-2.79
-2.43
-1.38
-0.25
0.39
0.16
-1.01
-2.98
-5.42
-8.02
-10.53
-12.85
-14.98
-17.02
-19.09
-21.34
-23.95
-27.01
-30.42
-33.69
-35.98
-36.22
-33.47
-27.35
-18.22
-7.23
4.04
13.91
21.11
25.03
25.68
23.62
19.70
14.84
9.87
5.49
2.20
0.31
-0.12
0.70
2.40
4.47
6.48
8.13
9.31
10.05
10.37
10.21
9.45
7.96
5.76
3.06
0.19
-2.46
-4.70
-6.48
-8.00
-9.56
-11.48
-13.95
-16.91
-19.91
-22.12
-22.56
-20.34
-15.09
-7.15
2.38
12.06
20.46
26.56
29.92
30.58
28.95
25.54
20.99
15.94
11.05
6.94
4.02
2.50
2.32
3.21
4.80
6.70
8.54
10.04
11.05
11.51
11.53
11.16
10.47
9.39
7.87
5.88
3.55
1.12
-1.21
-3.35
-5.45
-7.80
-10.69
-14.21
-18.09
-21.72
-24.27
-24.90
-23.04
-18.58
-11.91
-3.90
4.35
11.81
17.69
21.62
23.52
23.53
21.83
18.75
14.74
10.44
6.61
3.87
2.52
2.41
3.09
4.03
4.87
5.57
6.23
7.00
7.80
8.38
8.36
7.52
5.82
3.54
1.02
-1.47
-3.81
-6.03
-8.24
-10.52
-12.88
-15.30
-17.77
-20.36
-23.00
-25.40
-26.92
-26.74
-24.12
-18.76
-11.10
-2.23
6.45
13.70
18.78
21.59
22.40
21.69
19.77
16.85
13.18
9.15
5.33
2.29
0.46
-0.13
0.26
1.21
2.36
3.50
4.60
5.67
6.63
7.23
7.14
6.14
4.20
1.60
-1.19
-3.67
-5.50
-6.64
-7.32
-7.96
-9.04
-10.89
-13.62
-16.91
-20.12
-22.28
-22.46
-20.03
-14.96
-7.92
-0.04
7.39
13.32
17.13
18.67
18.12
15.86
12.34
8.14
3.87
0.11
-2.63
-4.12
-4.40
-3.74
-2.52
-1.09
0.30
1.54
2.57
3.37
3.82
3.77
3.13
1.91
0.25
-1.65
-3.56
-5.39
-7.15
-8.97
-11.00
-13.36
-16.10
-19.14
-22.21
-24.77
-26.08
-25.31
-21.92
-15.91
-7.97
0.64
8.53
14.58
18.24
19.64
19.26
17.77
15.72
13.49
11.28
9.31
7.79
6.93
6.83
7.48
8.67
10.07
11.37
12.36
12.96
13.23
13.21
12.89
12.17
10.92
9.11
6.84
4.37
1.95
-0.30
-2.46
-4.81
-7.66
-11.17
-15.23
-19.34
-22.74
-24.62
-24.30
-21.53
-16.57
-10.14
-3.27
3.02
7.92
11.00
12.21
11.82
10.18
7.69
4.67
1.39
-1.86
-4.82
-7.22
-8.86
-9.67
-9.69
-9.14
-8.29
-7.40
-6.68
-6.22
-6.10
-6.28
-6.74
-7.43
-8.31
-9.30
-10.37
-11.54
-12.89
-14.59
-16.76
-19.35
-22.04
-24.26
-25.23
-24.24
-20.91
-15.40
-8.35
-0.80
6.16
11.67
15.28
16.98
17.06
15.94
13.97
11.43
8.51
5.44
2.57
0.25
-1.18
-1.63
-1.23
-0.37
0.47
0.88
0.70
-0.05
-1.11
-2.21
-3.16
-3.91
-4.57
-5.33
-6.39
-7.91
-9.94
-12.40
-15.02
-17.33
-18.72
-18.53
-16.32
-12.01
-6.02
0.86
7.67
13.53
17.80
20.19
20.69
19.48
16.87
13.28
9.24
5.31
2.06
-0.14
-1.15
-1.15
-0.53
0.16
0.48
0.14
-0.79
-1.99
-3.05
-3.63
-3.75
-3.71
-4.03
-5.23
-7.58
-10.91
-14.65
-17.95
-19.89
-19.74
-17.16
-12.27
-5.70
1.69
8.92
15.18
19.91
22.85
23.92
23.23
20.98
17.49
13.22
8.76
4.68
1.48
-0.62
-1.65
-1.89
-1.69
-1.40
-1.23
-1.27
-1.50
-1.85
-2.31
-2.88
-3.62
-4.66
-6.16
-8.28
-11.12
-14.50
-17.88
-20.36
-20.89
-18.69
-13.54
-6.06
2.59
10.97
17.92
22.78
25.41
26.04
24.97
22.46
18.77
14.32
9.65
5.43
2.28
0.50
0.03
0.45
1.21
1.81
1.96
1.62
0.94
0.10
-0.79
-1.71
-2.77
-4.08
-5.81
-8.08
-10.95
-14.33
-17.83
-20.74
-22.19
-21.36
-17.90
-12.03
-4.63
3.08
9.90
15.01
18.12
19.32
18.94
17.29
14.60
11.09
7.09
3.06
-0.36
-2.55
-3.20
-2.40
-0.75
0.89
1.76
1.47
0.16
-1.66
-3.42
-4.75
-5.59
-6.23
-7.01
-8.20
-9.94
-12.10
-14.42
-16.45
-17.64
-17.40
-15.32
-11.29
-5.63
0.95
7.55
13.31
17.59
20.05
20.67
19.65
17.33
14.14
10.52
6.91
3.70
1.27
-0.16
-0.50
0.09
1.25
2.56
3.62
4.17
4.18
3.82
3.29
2.77
2.34
1.89
1.17
-0.08
-2.06
-4.79
-8.00
-11.17
-13.60
-14.55
-13.50
-10.30
-5.23
0.98
7.39
13.08
17.36
19.96
20.98
20.73
19.51
17.54
14.89
11.68
8.16
4.73
1.89
0.02
-0.76
-0.65
-0.05
0.56
0.87
0.78
0.38
-0.16
-0.68
-1.12
-1.58
-2.22
-3.28
-4.90
-7.12
-9.79
-12.59
-15.07
-16.73
-17.12
-15.92
-13.03
-8.62
-3.15
2.72
8.26
12.82
15.95
17.47
17.49
16.25
14.14
11.56
8.88
6.45
4.54
3.28
2.72
2.78
3.36
4.29
5.40
6.48
7.31
7.69
7.55
6.99
6.19
5.40
4.72
4.10
3.31
2.11
0.45
-1.49
-3.24
-4.24
-4.01
-2.33
0.72
4.77
9.29
13.72
17.54
20.37
21.96
22.25
21.33
19.43
16.80
13.72
10.41
7.05
3.86
1.04
-1.21
-2.78
-3.67
-3.98
-3.92
-3.69
-3.46
-3.41
-3.67
-4.35
-5.49
-6.98
-8.63
-10.23
-11.67
-13.03
-14.54
-16.37
-18.47
-20.51
-21.89
-21.99
-20.48
-17.38
-13.06
-8.15
-3.24
1.18
4.78
7.37
8.77
8.90
7.78
5.60
2.82
0.01
-2.31
-3.80
-4.40
-4.32
-3.87
-3.35
-2.97
-2.82
-2.91
-3.25
-3.78
-4.44
-5.06
-5.50
-5.69
-5.74
-5.92
-6.58
-7.95
-9.98
-12.31
-14.37
-15.53
-15.37
-13.70
-10.65
-6.54
-1.82
3.01
7.44
11.00
13.32
14.21
13.70
12.03
9.62
6.90
4.27
2.03
0.33
-0.79
-1.39
-1.62
-1.62
-1.54
-1.48
-1.55
-1.79
-2.22
-2.82
-3.53
-4.24
-4.87
-5.43
-6.06
-7.00
-8.41
-10.31
-12.37
-14.02
-14.56
-13.43
-10.51
-6.15
-1.12
3.72
7.69
10.50
12.17
12.96
13.11
12.72
11.80
10.32
8.40
6.25
4.16
2.37
1.02
0.11
-0.49
-0.91
-1.23
-1.52
-1.79
-2.02
-2.23
-2.46
-2.80
-3.37
-4.31
-5.71
-7.63
-9.94
-12.45
-14.75
-16.34
-16.68
-15.38
-12.36
-7.92
-2.71
2.57
7.23
10.89
13.39
14.78
15.14
14.53
13.05
10.83
8.15
5.36
2.86
1.01
-0.01
-0.20
0.24
0.95
1.52
1.60
1.02
-0.13
-1.61
-3.12
-4.45
-5.49
-6.31
-7.10
-8.09
-9.51
-11.47
-13.82
-16.10
-17.60
-17.60
-15.69
-11.94
-6.95
-1.54
3.50
7.61
10.56
12.31
12.88
12.33
10.77
8.42
5.63
2.86
0.56
-0.96
-1.54
-1.28
-0.47
0.48
1.15
1.25
0.71
-0.30
-1.47
-2.53
-3.32
-3.93
-4.53
-5.32
-6.43
-7.88
-9.62
-11.55
-13.53
-15.30
-16.41
-16.35
-14.63
-11.05
-5.82
0.34
6.45
11.53
14.93
16.47
16.39
15.17
13.27
11.02
8.60
6.12
3.77
1.78
0.37
-0.29
-0.22
0.35
1.10
1.69
1.91
1.71
1.19
0.53
-0.11
-0.60
-0.92
-1.09
-1.19
-1.37
-1.83
-2.79
-4.34
-6.38
-8.50
-10.06
-10.35
-8.85
-5.46
-0.53
5.16
10.70
15.24
18.21
19.41
18.96
17.23
14.69
11.80
8.96
6.40
4.22
2.40
0.89
-0.35
-1.32
-2.03
-2.50
-2.82
-3.07
-3.29
-3.45
-3.56
-3.67
-3.89
-4.41
-5.40
-6.83
-8.62
-10.58
-12.59
-14.58
-16.55
-18.35
-19.68
-20.08
-19.11
-16.53
-12.46
-7.36
-1.92
3.18
7.46
10.69
12.79
13.84
13.91
13.07
11.43
9.24
6.82
4.59
2.89
1.93
1.68
1.99
2.59
3.23
3.65
3.71
3.32
2.53
1.49
0.44
-0.44
-1.06
-1.52
-2.14
-3.24
-5.10
-7.70
-10.80
-13.89
-16.28
-17.31
-16.48
-13.61
-8.92
-3.01
3.31
9.19
13.96
17.28
19.02
19.26
18.13
15.80
12.57
8.84
5.19
2.16
0.18
-0.61
-0.35
0.59
1.74
2.66
3.01
2.62
1.48
-0.26
-2.29
-4.22
-5.74
-6.72
-7.31
-7.94
-9.12
-11.19
-14.07
-17.15
-19.44
-19.90
-17.85
-13.22
-6.61
0.90
8.13
14.14
18.36
20.60
20.99
19.73
17.14
13.58
9.44
5.19
1.31
-1.79
-3.85
-4.83
-4.88
-4.33
-3.59
-3.01
-2.89
-3.34
-4.35
-5.77
-7.40
-9.02
-10.44
-11.59
-12.57
-13.61
-14.98
-16.89
-19.22
-21.59
-23.30
-23.64
-22.00
-18.23
-12.58
-5.77
1.19
7.35
11.95
14.66
15.52
14.82
12.95
10.28
7.17
3.99
1.15
-0.93
-1.94
-1.83
-0.81
0.73
2.30
3.51
4.14
4.14
3.64
2.82
1.90
1.04
0.30
-0.44
-1.42
-2.93
-5.08
-7.79
-10.68
-13.14
-14.51
-14.17
-11.77
-7.32
-1.25
5.67
12.48
18.27
22.41
24.68
25.22
24.36
22.46
19.80
16.59
13.09
9.65
6.74
4.71
3.71
3.56
3.91
4.35
4.62
4.65
4.50
4.28
4.02
3.67
3.11
2.23
0.96
-0.70
-2.70
-4.97
-7.31
-9.38
-10.69
-10.60
-8.59
-4.45
1.53
8.55
15.52
21.34
25.27
27.05
26.89
25.22
22.53
19.15
15.30
11.24
7.30
3.91
1.49
0.30
0.29
1.07
2.09
2.81
2.91
2.35
1.37
0.31
-0.59
-1.28
-1.90
-2.73
-4.02
-5.93
-8.41
-11.29
-14.24
-16.88
-18.72
-19.26
-18.05
-14.83
-9.69
-3.15
3.90
10.44
15.60
18.86
20.12
19.60
17.62
14.52
10.57
6.14
1.75
-1.99
-4.56
-5.72
-5.60
-4.67
-3.53
-2.67
-2.31
-2.44
-2.87
-3.42
-3.96
-4.50
-5.13
-6.00
-7.23
-8.92
-11.12
-13.77
-16.65
-19.37
-21.37
-22.01
-20.74
-17.30
-11.93
-5.34
1.46
7.46
11.95
14.67
15.80
15.71
14.73
12.98
10.52
7.40
3.90
0.55
-2.06
-3.57
-3.95
-3.58
-3.02
-2.71
-2.79
-3.10
-3.35
-3.38
-3.23
-3.16
-3.46
-4.37
-5.92
-8.03
-10.51
-13.13
-15.62
-17.61
-18.60
-18.11
-15.72
-11.31
-5.16
2.05
9.35
15.72
20.39
22.93
23.35
21.89
18.96
14.97
10.38
5.77
1.75
-1.10
-2.39
-2.17
-0.89
0.68
1.77
1.85
0.84
-0.92
-2.83
-4.31
-5.08
-5.30
-5.51
-6.38
-8.41
-11.60
-15.40
-18.82
-20.74
-20.30
-17.16
-11.56
-4.28
3.63
11.07
17.15
21.24
23.06
22.64
20.32
16.62
12.18
7.68
3.72
0.76
-1.00
-1.61
-1.28
-0.38
0.71
1.62
2.11
2.06
1.51
0.62
-0.38
-1.34
-2.29
-3.48
-5.28
-7.95
-11.42
-15.10
-18.01
-19.09
-17.60
-13.42
-7.09
0.40
7.94
14.58
19.74
23.12
24.59
24.14
21.90
18.18
13.55
8.84
4.84
2.12
0.81
0.62
0.96
1.25
1.09
0.36
-0.83
-2.28
-3.81
-5.30
-6.71
-8.11
-9.64
-11.50
-13.83
-16.55
-19.22
-21.07
-21.17
-18.84
-13.93
-6.94
1.05
8.76
15.07
19.27
21.19
21.03
19.21
16.22
12.50
8.45
4.50
1.07
-1.45
-2.85
-3.14
-2.58
-1.61
-0.68
-0.15
-0.16
-0.72
-1.71
-3.03
-4.63
-6.53
-8.82
-11.55
-14.67
-17.82
-20.35
-21.44
-20.34
-16.73
-10.87
-3.64
3.77
10.25
15.00
17.68
18.30
17.13
14.51
10.90
6.84
2.95
-0.15
-2.03
-2.60
-2.09
-1.00
0.18
1.05
1.49
1.58
1.47
1.26
0.93
0.34
-0.66
-2.19
-4.25
-6.66
-9.11
-11.14
-12.23
-11.89
-9.82
-6.04
-0.92
4.86
10.43
14.98
17.98
19.21
18.78
17.03
14.38
11.25
8.01
5.03
2.62
1.07
0.55
0.98
2.07
3.32
4.27
4.58
4.19
3.25
2.04
0.77
-0.53
-1.97
-3.83
-6.28
-9.31
-12.56
-15.35
-16.88
-16.40
-13.58
-8.58
-2.17
4.62
10.74
15.44
18.42
19.71
19.56
18.20
15.82
12.59
8.85
5.16
2.12
0.27
-0.28
0.18
1.03
1.66
1.71
1.16
0.34
-0.39
-0.81
-1.02
-1.32
-2.10
-3.64
-5.98
-8.97
-12.19
-15.08
-16.97
-17.22
-15.42
-11.54
-5.98
0.48
6.90
12.44
16.53
18.95
19.72
18.97
16.92
13.82
10.05
6.13
2.62
0.04
-1.30
-1.44
-0.70
0.39
1.30
1.67
1.41
0.69
-0.17
-0.90
-1.39
-1.77
-2.33
-3.39
-5.16
-7.66
-10.62
-13.52
-15.74
-16.63
-15.74
-12.92
-8.39
-2.72
3.27
8.74
13.03
15.75
16.85
16.50
14.97
12.55
9.54
6.28
3.13
0.47
-1.39
-2.30
-2.29
-1.60
-0.57
0.42
1.09
1.21
0.79
-0.05
-1.04
-1.92
-2.57
-3.01
-3.51
-4.43
-6.09
-8.56
-11.58
-14.56
-16.70
-17.27
-15.82
-12.37
-7.35
-1.49
4.41
9.68
13.83
16.59
17.86
17.66
16.12
13.50
10.15
6.52
3.07
0.21
-1.74
-2.66
-2.60
-1.83
-0.70
0.39
1.17
1.52
1.47
1.14
0.65
0.06
-0.61
-1.39
-2.37
-3.67
-5.46
-7.80
-10.58
-13.40
-15.66
-16.64
-15.77
-12.87
-8.21
-2.46
3.46
8.69
12.61
14.88
15.50
14.64
12.61
9.76
6.43
3.00
-0.17
-2.75
-4.52
-5.36
-5.32
-4.58
-3.42
-2.16
-1.02
-0.16
0.36
0.55
0.43
0.03
-0.61
-1.39
-2.25
-3.17
-4.27
-5.73
-7.66
-9.99
-12.30
-13.96
-14.35
-13.06
-10.13
-6.05
-1.49
2.85
6.49
9.18
10.79
11.30
10.68
8.99
6.40
3.21
-0.18
-3.37
-6.01
-7.94
-9.10
-9.62
-9.71
-9.71
-9.90
-10.50
-11.62
-13.15
-14.95
-16.78
-18.52
-20.10
-21.60
-23.20
-25.14
-27.68
-30.98
-34.94
-39.17
-43.00
-45.71
-46.71
-45.86
-43.44
-40.09
-36.55
-33.41
-30.92
-28.98
-27.26
-25.31
-22.75
-19.32
-14.92
-9.52
-3.17
4.05
11.98
20.30
28.54
36.12
42.43
47.07
49.93
51.13
50.97
49.77
47.76
45.10
41.91
38.35
34.60
30.81
27.05
23.29
19.52
15.84
12.55
10.10
8.88
9.16
10.87
13.62
16.83
19.87
22.20
23.52
23.70
22.82
21.02
18.51
15.48
12.17
8.84
5.81
3.39
1.84
1.25
1.54
2.40
3.44
4.23
4.48
4.07
3.07
1.67
0.11
-1.38
-2.65
-3.68
-4.60
-5.67
-7.16
-9.25
-11.85
-14.58
-16.77
-17.73
-16.94
-14.30
-10.17
-5.21
-0.18
4.30
7.81
10.14
11.22
11.01
9.61
7.25
4.31
1.27
-1.42
-3.45
-4.74
-5.36
-5.49
-5.31
-5.02
-4.78
-4.68
-4.75
-4.90
-5.04
-5.06
-4.98
-4.89
-5.02
-5.58
-6.76
-8.64
-11.10
-13.83
-16.31
-17.90
-18.01
-16.29
-12.79
-7.96
-2.53
2.75
7.32
10.83
13.17
14.32
14.28
13.10
10.91
8.00
4.82
1.86
-0.41
-1.74
-2.11
-1.78
-1.08
-0.34
0.21
0.54
0.67
0.67
0.52
0.15
-0.53
-1.60
-3.02
-4.73
-6.63
-8.66
-10.72
-12.62
-13.93
-14.12
-12.67
-9.35
-4.42
1.42
7.21
12.09
15.50
17.35
17.84
17.33
16.01
13.96
11.22
7.92
4.46
1.40
-0.70
-1.59
-1.39
-0.62
0.10
0.28
-0.20
-1.11
-2.09
-2.83
-3.30
-3.70
-4.38
-5.65
-7.68
-10.42
-13.63
-16.86
-19.52
-20.97
-20.61
-18.13
-13.62
-7.62
-1.02
5.15
10.01
13.04
14.10
13.43
11.48
8.69
5.49
2.16
-1.05
-3.87
-6.03
-7.29
-7.56
-6.95
-5.84
-4.72
-4.08
-4.16
-4.92
-6.01
-7.03
-7.68
-7.93
-8.06
-8.45
-9.48
-11.29
-13.75
-16.45
-18.76
-19.99
-19.48
-16.87
-12.17
-5.85
1.23
8.10
13.88
18.01
20.26
20.69
19.52
17.10
13.87
10.32
6.99
4.31
2.58
1.88
2.12
3.07
4.41
5.82
6.97
7.58
7.52
6.82
5.67
4.34
3.05
1.92
0.87
-0.31
-1.92
-4.17
-7.08
-10.34
-13.27
-14.96
-14.61
-11.74
-6.53
0.28
7.59
14.28
19.59
23.11
24.82
24.87
23.45
20.84
17.40
13.63
10.11
7.38
5.78
5.39
6.02
7.35
8.97
10.52
11.69
12.29
12.24
11.56
10.37
8.86
7.23
5.65
4.22
2.93
1.67
0.21
-1.65
-4.03
-6.78
-9.47
-11.37
-11.69
-9.85
-5.72
0.28
7.24
14.03
19.63
23.35
24.93
24.48
22.36
19.05
15.07
11.01
7.37
4.55
2.70
1.76
1.48
1.53
1.66
1.66
1.49
1.06
0.37
-0.64
-1.96
-3.49
-5.12
-6.71
-8.18
-9.55
-10.92
-12.39
-14.04
-15.92
-18.04
-20.38
-22.82
-25.10
-26.69
-26.93
-25.17
-21.00
-14.58
-6.67
1.55
8.78
14.01
16.82
17.36
16.22
14.07
11.47
8.76
6.06
3.48
1.16
-0.70
-1.88
-2.27
-1.93
-1.02
0.16
1.31
2.14
2.43
2.09
1.15
-0.25
-1.91
-3.62
-5.25
-6.73
-8.04
-9.21
-10.32
-11.50
-12.89
-14.49
-16.09
-17.19
-17.10
-15.22
-11.31
-5.66
0.97
7.54
13.13
17.13
19.31
19.75
18.66
16.28
12.90
8.86
4.66
0.85
-2.00
-3.56
-3.77
-2.93
-1.53
-0.10
0.95
1.38
1.17
0.45
-0.59
-1.73
-2.83
-3.80
-4.67
-5.55
-6.61
-8.00
-9.80
-12.01
-14.46
-16.86
-18.69
-19.29
-18.03
-14.51
-8.83
-1.73
5.65
12.06
16.59
18.94
19.35
18.34
16.45
14.02
11.24
8.27
5.38
2.99
1.46
0.99
1.44
2.39
3.33
3.82
3.67
2.95
1.91
0.80
-0.20
-1.10
-2.04
-3.17
-4.60
-6.36
-8.46
-10.83
-13.42
-15.97
-18.07
-19.09
-18.36
-15.47
-10.46
-3.89
3.23
9.82
15.00
18.28
19.64
19.36
17.82
15.39
12.35
9.01
5.67
2.67
0.33
-1.17
-1.79
-1.69
-1.14
-0.42
0.17
0.49
0.49
0.21
-0.32
-1.05
-2.00
-3.23
-4.73
-6.47
-8.36
-10.36
-12.51
-14.85
-17.27
-19.30
-20.17
-19.01
-15.28
-9.10
-1.38
6.52
13.22
17.82
20.04
20.18
18.76
16.24
12.95
9.17
5.26
1.72
-0.95
-2.42
-2.71
-2.16
-1.26
-0.50
-0.21
-0.48
-1.27
-2.46
-3.93
-5.59
-7.34
-9.04
-10.59
-11.90
-13.03
-14.15
-15.48
-17.20
-19.22
-21.17
-22.42
-22.27
-20.19
-16.01
-10.03
-2.93
4.32
10.76
15.54
18.20
18.64
17.18
14.38
10.84
7.08
3.41
0.06
-2.77
-4.81
-5.79
-5.59
-4.38
-2.59
-0.81
0.51
1.12
1.08
0.60
-0.15
-1.06
-2.09
-3.23
-4.39
-5.45
-6.37
-7.25
-8.33
-9.83
-11.77
-13.75
-15.08
-14.90
-12.58
-8.01
-1.71
5.31
11.89
17.05
20.33
21.78
21.79
20.85
19.33
17.41
15.23
12.91
10.67
8.82
7.61
7.20
7.57
8.50
9.69
10.80
11.56
11.81
11.52
10.77
9.69
8.41
7.06
5.74
4.52
3.47
2.54
1.59
0.33
-1.44
-3.77
-6.33
-8.50
-9.47
-8.60
-5.65
-0.91
4.85
10.62
15.46
18.70
20.07
19.65
17.75
14.77
11.11
7.13
3.18
-0.44
-3.47
-5.74
-7.20
-7.90
-8.02
-7.76
-7.33
-6.90
-6.62
-6.60
-6.89
-7.53
-8.47
-9.65
-10.94
-12.17
-13.18
-13.92
-14.51
-15.26
-16.56
-18.61
-21.21
-23.70
-25.08
-24.43
-21.22
-15.61
-8.39
-0.75
6.16
11.50
14.91
16.46
16.48
15.37
13.43
10.89
7.95
4.86
1.92
-0.50
-2.14
-2.89
-2.84
-2.25
-1.40
-0.57
0.02
0.26
0.08
-0.50
-1.35
-2.31
-3.24
-4.14
-5.15
-6.54
-8.53
-11.19
-14.27
-17.25
-19.46
-20.16
-18.86
-15.36
-9.94
-3.29
3.64
9.84
14.53
17.31
18.18
17.44
15.48
12.72
9.55
6.36
3.53
1.44
0.31
0.17
0.79
1.78
2.67
3.11
2.94
2.17
0.99
-0.38
-1.73
-2.97
-4.09
-5.19
-6.43
-7.96
-9.91
-12.28
-14.92
-17.41
-19.14
-19.42
-17.72
-13.90
-8.29
-1.64
5.08
10.99
15.44
18.10
18.89
17.90
15.34
11.57
7.14
2.80
-0.73
-2.94
-3.73
-3.44
-2.68
-2.08
-1.99
-2.44
-3.15
-3.80
-4.21
-4.37
-4.45
-4.61
-5.05
-5.91
-7.37
-9.48
-12.13
-14.88
-16.98
-17.60
-16.05
-12.13
-6.22
0.85
7.98
14.20
18.79
21.47
22.22
21.29
19.00
15.69
11.79
7.75
4.06
1.15
-0.71
-1.51
-1.53
-1.17
-0.86
-0.90
-1.36
-2.18
-3.18
-4.25
-5.36
-6.59
-8.11
-10.05
-12.43
-15.08
-17.57
-19.22
-19.29
-17.20
-12.80
-6.45
1.03
8.61
15.35
20.55
23.86
25.14
24.42
21.87
17.82
12.87
7.80
3.46
0.46
-0.99
-1.16
-0.64
-0.12
-0.10
-0.69
-1.68
-2.69
-3.44
-3.89
-4.32
-5.13
-6.70
-9.22
-12.58
-16.36
-19.85
-22.15
-22.35
-19.81
-14.41
-6.67
2.30
11.11
18.47
23.52
25.91
25.76
23.43
19.45
14.46
9.16
4.31
0.59
-1.57
-2.07
-1.22
0.42
2.15
3.32
3.55
2.81
1.39
-0.27
-1.81
-3.12
-4.43
-6.19
-8.81
-12.47
-16.92
-21.48
-25.18
-26.97
-26.02
-22.02
-15.27
-6.70
2.40
10.67
17.11
21.16
22.80
22.32
20.13
16.64
12.27
7.49
2.86
-0.99
-3.53
-4.51
-4.06
-2.66
-1.03
0.20
0.64
0.22
-0.82
-2.17
-3.62
-5.11
-6.75
-8.64
-10.84
-13.37
-16.21
-19.29
-22.32
-24.74
-25.71
-24.33
-20.06
-13.04
-4.13
5.28
13.79
20.41
24.70
26.69
26.66
24.92
21.74
17.50
12.74
8.15
4.46
2.21
1.59
2.37
4.01
5.85
7.36
8.28
8.57
8.38
7.85
7.05
5.97
4.61
3.04
1.33
-0.49
-2.57
-5.12
-8.32
-11.98
-15.53
-18.00
-18.31
-15.77
-10.33
-2.71
5.84
13.85
20.14
24.06
25.55
24.99
22.93
19.92
16.37
12.68
9.23
6.45
4.73
4.27
4.99
6.51
8.36
10.02
11.18
11.69
11.63
11.14
10.39
9.57
8.79
8.14
7.55
6.92
6.06
4.72
2.79
0.32
-2.33
-4.47
-5.28
-4.00
-0.28
5.63
12.85
20.14
26.24
30.25
31.78
30.97
28.27
24.21
19.34
14.14
9.06
4.54
0.96
-1.45
-2.70
-3.00
-2.79
-2.55
-2.66
-3.28
-4.36
-5.67
-6.89
-7.86
-8.52
-8.97
-9.39
-9.98
-10.96
-12.55
-14.94
-18.07
-21.56
-24.62
-26.23
-25.51
-22.04
-16.10
-8.62
-0.88
5.95
11.02
13.98
14.90
14.07
11.89
8.81
5.29
1.82
-1.17
-3.38
-4.74
-5.36
-5.52
-5.50
-5.52
-5.61
-5.72
-5.75
-5.65
-5.42
-5.15
-4.98
-5.07
-5.61
-6.77
-8.65
-11.16
-14.06
-16.86
-18.97
-19.77
-18.82
-15.94
-11.39
-5.75
0.18
5.57
9.80
12.52
13.71
13.55
12.31
10.25
7.62
4.70
1.83
-0.64
-2.45
-3.50
-3.90
-3.86
-3.64
-3.39
-3.20
-3.06
-2.92
-2.81
-2.72
-2.76
-3.07
-3.81
-5.11
-6.97
-9.20
-11.42
-13.11
-13.76
-13.03
-10.84
-7.38
-3.02
1.70
6.25
10.10
12.82
14.12
13.92
12.41
10.00
7.25
4.64
2.50
0.91
-0.31
-1.37
-2.42
-3.44
-4.27
-4.79
-4.96
-4.87
-4.69
-4.57
-4.59
-4.79
-5.29
-6.22
-7.75
-9.79
-11.96
-13.60
-14.04
-12.83
-9.98
-5.93
-1.36
3.06
6.82
9.66
11.47
12.26
12.03
10.89
8.99
6.62
4.13
1.85
0.04
-1.19
-1.94
-2.41
-2.86
-3.40
-4.01
-4.48
-4.62
-4.38
-3.97
-3.82
-4.39
-5.92
-8.27
-10.94
-13.18
-14.23
-13.58
-11.08
-7.03
-2.02
3.21
7.98
11.74
14.15
15.03
14.40
12.48
9.65
6.43
3.37
0.91
-0.74
-1.65
-2.07
-2.32
-2.62
-3.10
-3.69
-4.31
-4.87
-5.33
-5.85
-6.62
-7.84
-9.54
-11.52
-13.30
-14.24
-13.81
-11.70
-7.99
-3.13
2.21
7.33
11.63
14.74
16.46
16.78
15.83
13.85
11.21
8.27
5.41
2.88
0.80
-0.80
-1.93
-2.63
-2.99
-3.12
-3.24
-3.53
-4.11
-4.96
-5.96
-7.03
-8.17
-9.53
-11.16
-12.90
-14.21
-14.36
-12.68
-8.94
-3.56
2.56
8.31
12.82
15.62
16.72
16.41
15.02
12.87
10.24
7.44
4.83
2.75
1.36
0.66
0.41
0.31
0.11
-0.35
-1.05
-1.88
-2.72
-3.46
-4.14
-4.95
-6.17
-7.99
-10.34
-12.82
-14.70
-15.18
-13.71
-10.20
-5.10
0.76
6.51
11.41
15.05
17.27
18.10
17.64
16.05
13.56
10.51
7.38
4.64
2.70
1.76
1.73
2.32
3.11
3.69
3.84
3.47
2.70
1.69
0.58
-0.56
-1.73
-3.02
-4.58
-6.52
-8.89
-11.54
-14.04
-15.78
-16.02
-14.26
-10.35
-4.77
1.57
7.58
12.34
15.42
16.87
17.07
16.41
15.17
13.37
11.02
8.22
5.29
2.75
1.01
0.26
0.30
0.65
0.81
0.41
-0.59
-2.03
-3.62
-5.17
-6.60
-7.94
-9.22
-10.38
-11.32
-11.99
-12.45
-12.83
-13.24
-13.62
-13.68
-13.04
-11.35
-8.56
-4.93
-1.01
2.60
5.34
6.98
7.50
7.09
6.02
4.50
2.68
0.67
-1.32
-3.01
-4.10
-4.35
-3.75
-2.54
-1.12
0.09
0.83
1.03
0.80
0.33
-0.28
-0.98
-1.83
-2.87
-4.13
-5.62
-7.36
-9.31
-11.42
-13.52
-15.31
-16.40
-16.39
-14.99
-12.11
-7.97
-2.99
2.25
7.14
11.19
14.10
15.76
16.26
15.81
14.68
13.16
11.45
9.78
8.32
7.21
6.59
6.50
6.91
7.66
8.52
9.29
9.81
10.04
9.99
9.74
9.34
8.83
8.21
7.49
6.70
5.78
4.68
3.33
1.74
0.05
-1.42
-2.24
-2.01
-0.53
2.09
5.48
9.08
12.38
15.00
16.81
17.86
18.21
17.93
17.07
15.68
13.86
11.81
9.79
8.04
6.72
5.84
5.34
5.05
4.79
4.42
3.85
3.07
2.10
0.98
-0.24
-1.46
-2.63
-3.70
-4.64
-5.51
-6.39
-7.35
-8.35
-9.25
-9.77
-9.65
-8.75
-7.08
-4.88
-2.50
-0.27
1.55
2.83
3.53
3.66
3.24
2.26
0.75
-1.19
-3.33
-5.36
-6.92
-7.73
-7.73
-7.09
-6.13
-5.22
-4.63
-4.38
-4.38
-4.46
-4.56
-4.74
-5.11
-5.79
-6.79
-7.98
-9.22
-10.44
-11.60
-12.66
-13.48
-13.79
-13.26
-11.68
-9.11
-5.86
-2.47
0.56
2.90
4.46
5.33
5.62
5.38
4.55
3.06
0.96
-1.52
-3.99
-6.04
-7.39
-7.99
-8.00
-7.72
-7.46
-7.40
-7.58
-7.90
-8.21
-8.34
-8.23
-7.90
-7.46
-7.07
-6.88
-7.02
-7.55
-8.50
-9.76
-11.04
-11.94
-11.97
-10.79
-8.37
-5.00
-1.30
2.08
4.63
6.15
6.70
6.50
5.75
4.58
3.07
1.34
-0.37
-1.76
-2.59
-2.80
-2.49
-1.94
-1.37
-0.91
-0.57
-0.25
0.10
0.44
0.61
0.51
0.09
-0.58
-1.36
-2.15
-2.90
-3.68
-4.46
-5.15
-5.44
-5.01
-3.59
-1.11
2.21
5.96
9.65
12.89
15.40
17.08
17.89
17.85
16.98
15.34
13.10
10.50
7.89
5.55
3.73
2.54
1.96
1.87
2.09
2.37
2.47
2.22
1.58
0.65
-0.34
-1.20
-1.83
-2.31
-2.89
-3.85
-5.40
-7.48
-9.77
-11.71
-12.72
-12.36
-10.49
-7.32
-3.35
0.78
4.51
7.48
9.58
10.86
11.46
11.42
10.73
9.33
7.26
4.73
2.14
-0.08
-1.62
-2.40
-2.60
-2.56
-2.58
-2.83
-3.29
-3.87
-4.46
-5.02
-5.58
-6.16
-6.83
-7.64
-8.67
-9.95
-11.52
-13.25
-14.84
-15.87
-15.86
-14.48
-11.72
-7.91
-3.64
0.37
3.56
5.64
6.63
6.74
6.21
5.18
3.75
1.97
0.05
-1.67
-2.84
-3.23
-2.86
-2.01
-1.07
-0.38
-0.08
-0.09
-0.23
-0.32
-0.33
-0.38
-0.67
-1.39
-2.62
-4.33
-6.43
-8.82
-11.41
-14.07
-16.56
-18.43
-19.14
-18.23
-15.53
-11.29
-6.18
-0.99
3.60
7.21
9.79
11.45
12.26
12.20
11.17
9.19
6.54
3.71
1.34
-0.09
-0.34
0.43
1.85
3.46
4.88
5.87
6.31
6.14
5.32
3.89
2.01
-0.09
-2.13
-3.90
-5.38
-6.76
-8.22
-9.89
-11.57
-12.80
-12.99
-11.65
-8.63
-4.17
1.10
6.43
11.12
14.68
16.88
17.74
17.40
16.05
13.93
11.27
8.38
5.62
3.34
1.76
0.94
0.69
0.73
0.75
0.59
0.25
-0.17
-0.57
-0.98
-1.55
-2.50
-3.97
-6.02
-8.64
-11.80
-15.41
-19.29
-23.01
-25.87
-27.09
-26.00
-22.42
-16.69
-9.65
-2.37
4.19
9.40
13.00
15.10
15.98
15.99
15.46
14.68
13.84
13.09
12.53
12.20
12.05
11.95
11.70
11.10
10.01
8.40
6.44
4.35
2.30
0.34
-1.70
-4.11
-7.21
-11.21
-16.12
-21.66
-27.34
-32.47
-36.31
-38.24
-38.02
-35.80
-32.11
-27.70
-23.29
-19.47
-16.66
-15.15
-15.13
-16.76
-20.03
-24.70
-30.30
-36.12
-41.43
-45.55
-48.03
-48.66
-47.48
-44.79
-41.01
-36.56
-31.78
-26.72
-21.20
-14.94
-7.76
0.30
8.83
17.15
24.41
29.91
33.22
34.48
34.36
33.91
34.27
36.25
40.11
45.40
51.17
56.27
59.74
61.05
60.19
57.51
53.51
48.73
43.68
38.82
34.59
31.32
29.17
28.01
27.50
27.17
26.56
25.40
23.68
21.63
19.55
17.74
16.30
15.12
13.94
12.44
10.42
7.82
4.72
1.26
-2.38
-5.90
-8.83
-10.56
-10.46
-8.18
-3.89
1.69
7.50
12.41
15.68
17.07
16.78
15.26
12.96
10.21
7.29
4.42
1.89
0.05
-0.80
-0.56
0.68
2.58
4.69
6.59
8.01
8.86
9.30
9.50
9.68
9.97
10.41
10.94
11.37
11.51
11.15
10.19
8.69
6.90
5.26
4.27
4.41
5.99
8.99
13.10
17.69
22.02
25.42
27.41
27.84
26.81
24.57
21.41
17.54
13.11
8.26
3.20
-1.77
-6.27
-9.91
-12.39
-13.61
-13.68
-12.91
-11.70
-10.43
-9.35
-8.62
-8.27
-8.34
-8.88
-9.91
-11.45
-13.36
-15.51
-17.72
-19.85
-21.76
-23.25
-23.93
-23.34
-21.01
-16.76
-10.84
-3.92
3.01
8.96
13.20
15.38
15.58
14.19
11.71
8.60
5.17
1.58
-2.04
-5.53
-8.64
-11.06
-12.55
-13.06
-12.76
-11.96
-11.01
-10.13
-9.31
-8.44
-7.37
-6.05
-4.61
-3.33
-2.51
-2.43
-3.21
-4.89
-7.35
-10.35
-13.50
-16.23
-17.86
-17.71
-15.37
-10.90
-4.85
1.77
7.84
12.44
15.07
15.74
14.78
12.67
9.88
6.79
3.69
0.83
-1.59
-3.37
-4.46
-4.86
-4.72
-4.22
-3.55
-2.90
-2.37
-2.05
-2.00
-2.28
-2.93
-4.02
-5.48
-7.16
-8.89
-10.57
-12.26
-14.15
-16.37
-18.77
-20.75
-21.36
-19.62
-14.99
-7.69
1.32
10.62
18.80
24.88
28.48
29.67
28.76
26.14
22.19
17.28
11.93
6.68
2.08
-1.47
-3.78
-4.89
-5.07
-4.68
-4.12
-3.80
-4.02
-4.96
-6.61
-8.84
-11.34
-13.81
-15.93
-17.41
-18.17
-18.27
-17.99
-17.75
-17.98
-18.89
-20.32
-21.71
-22.21
-20.99
-17.53
-11.88
-4.64
3.15
10.41
16.28
20.31
22.47
22.98
22.15
20.22
17.36
13.76
9.76
5.81
2.38
-0.10
-1.42
-1.58
-0.77
0.71
2.46
4.02
4.94
4.84
3.57
1.24
-1.77
-4.97
-7.93
-10.41
-12.45
-14.28
-16.20
-18.39
-20.86
-23.31
-25.24
-26.00
-25.01
-21.90
-16.72
-9.98
-2.53
4.60
10.43
14.32
16.05
15.82
14.13
11.64
8.89
6.30
4.06
2.24
0.86
-0.02
-0.35
-0.11
0.63
1.69
2.81
3.77
4.48
4.95
5.23
5.31
5.06
4.28
2.81
0.66
-1.90
-4.55
-7.02
-9.30
-11.56
-13.94
-16.30
-18.10
-18.46
-16.61
-12.20
-5.62
2.12
9.69
15.93
20.14
22.15
22.26
20.90
18.51
15.43
11.94
8.36
5.04
2.36
0.52
-0.44
-0.69
-0.45
0.07
0.78
1.61
2.44
3.06
3.22
2.71
1.53
-0.15
-2.02
-3.80
-5.32
-6.63
-7.90
-9.41
-11.37
-13.84
-16.63
-19.20
-20.79
-20.55
-17.95
-12.96
-6.14
1.48
8.74
14.71
18.85
21.05
21.48
20.46
18.34
15.47
12.25
9.03
6.10
3.67
1.84
0.63
0.08
0.19
0.94
2.21
3.77
5.29
6.41
6.88
6.60
5.62
4.10
2.22
0.14
-2.02
-4.15
-6.25
-8.37
-10.67
-13.34
-16.42
-19.66
-22.38
-23.65
-22.55
-18.56
-11.87
-3.42
5.38
13.08
18.63
21.61
22.21
21.01
18.66
15.74
12.60
9.51
6.64
4.17
2.27
1.10
0.69
0.93
1.64
2.57
3.42
3.96
3.97
3.39
2.29
0.86
-0.68
-2.17
-3.56
-4.93
-6.42
-8.10
-10.02
-12.20
-14.66
-17.39
-20.20
-22.61
-23.86
-23.09
-19.73
-13.77
-5.88
2.76
10.89
17.51
22.14
24.76
25.59
24.90
22.91
19.86
16.09
12.10
8.41
5.46
3.45
2.34
1.95
2.03
2.41
2.96
3.55
4.00
4.14
3.78
2.87
1.46
-0.27
-2.08
-3.78
-5.24
-6.56
-7.95
-9.75
-12.23
-15.45
-19.15
-22.65
-25.02
-25.30
-22.81
-17.48
-9.90
-1.24
7.15
14.11
18.94
21.50
22.06
21.07
18.96
16.13
12.84
9.41
6.15
3.35
1.25
-0.05
-0.54
-0.31
0.52
1.77
3.21
4.60
5.67
6.25
6.21
5.54
4.27
2.49
0.31
-2.14
-4.73
-7.40
-10.13
-13.05
-16.29
-19.84
-23.39
-26.25
-27.45
-26.03
-21.54
-14.20
-5.02
4.50
12.89
19.13
22.86
24.32
24.09
22.75
20.75
18.27
15.43
12.42
9.51
7.08
5.47
4.84
5.13
6.08
7.35
8.68
9.89
10.88
11.57
11.73
11.11
9.51
6.94
3.74
0.46
-2.41
-4.67
-6.61
-8.78
-11.74
-15.57
-19.65
-22.84
-23.87
-21.85
-16.68
-9.12
-0.46
7.90
14.84
19.71
22.28
22.61
20.90
17.40
12.48
6.65
0.55
-5.13
-9.75
-12.89
-14.40
-14.42
-13.34
-11.69
-10.02
-8.75
-8.09
-8.05
-8.44
-9.02
-9.60
-10.09
-10.53
-11.04
-11.87
-13.23
-15.25
-17.80
-20.44
-22.44
-22.89
-21.10
-16.81
-10.41
-2.78
4.93
11.78
17.20
21.08
23.59
24.91
25.10
24.04
21.64
17.93
13.28
8.30
3.70
0.08
-2.25
-3.35
-3.59
-3.43
-3.32
-3.50
-3.98
-4.62
-5.24
-5.74
-6.17
-6.69
-7.56
-9.04
-11.25
-14.12
-17.29
-20.11
-21.75
-21.47
-18.81
-13.83
-7.10
0.46
7.84
14.15
18.73
21.24
21.52
19.62
15.86
10.79
5.21
0.01
-4.06
-6.57
-7.47
-7.12
-6.07
-4.87
-3.91
-3.32
-3.03
-2.84
-2.58
-2.22
-1.87
-1.81
-2.35
-3.77
-6.13
-9.24
-12.51
-15.08
-16.00
-14.55
-10.48
-4.14
3.56
11.48
18.50
23.84
27.10
28.21
27.29
24.52
20.22
14.82
8.99
3.52
-0.85
-3.65
-4.84
-4.81
-4.27
-3.87
-4.03
-4.81
-5.92
-6.95
-7.58
-7.76
-7.76
-8.06
-9.18
-11.40
-14.61
-18.23
-21.34
-22.83
-21.82
-17.90
-11.36
-3.07
5.73
13.74
20.01
24.00
25.64
25.10
22.74
18.93
14.15
8.97
4.03
-0.04
-2.80
-4.14
-4.27
-3.71
-3.05
-2.72
-2.92
-3.53
-4.27
-4.86
-5.19
-5.38
-5.84
-6.99
-9.18
-12.39
-16.12
-19.49
-21.41
-20.92
-17.54
-11.52
-3.66
4.82
12.67
18.92
23.05
24.88
24.52
22.23
18.32
13.25
7.63
2.15
-2.47
-5.69
-7.36
-7.69
-7.15
-6.31
-5.64
-5.36
-5.44
-5.72
-6.04
-6.30
-6.57
-7.04
-7.97
-9.63
-12.16
-15.45
-19.02
-22.07
-23.61
-22.77
-19.06
-12.68
-4.42
4.52
12.84
19.48
23.81
25.65
25.18
22.74
18.79
13.83
8.50
3.47
-0.56
-3.07
-3.93
-3.41
-2.13
-0.80
0.08
0.33
0.16
-0.09
-0.16
-0.03
-0.02
-0.62
-2.26
-5.18
-9.23
-13.85
-18.08
-20.84
-21.13
-18.40
-12.77
-4.95
3.85
12.35
19.49
24.57
27.28
27.60
25.64
21.72
16.31
10.14
4.04
-1.15
-4.82
-6.70
-6.93
-5.97
-4.41
-2.87
-1.78
-1.36
-1.58
-2.21
-3.00
-3.77
-4.63
-5.92
-8.08
-11.41
-15.74
-20.35
-24.13
-25.89
-24.84
-20.82
-14.40
-6.63
1.35
8.57
14.37
18.42
20.54
20.65
18.71
14.89
9.64
3.70
-1.95
-6.43
-9.12
-9.94
-9.25
-7.71
-5.93
-4.28
-2.83
-1.46
-0.12
1.06
1.80
1.75
0.65
-1.55
-4.70
-8.46
-12.35
-15.73
-17.79
-17.73
-14.93
-9.21
-1.02
8.63
18.46
27.25
34.12
38.65
40.75
40.55
38.25
34.08
28.43
21.89
15.28
9.46
5.11
2.57
1.70
2.03
2.86
3.58
3.81
3.42
2.50
1.20
-0.43
-2.50
-5.24
-8.87
-13.41
-18.51
-23.44
-27.21
-28.78
-27.33
-22.57
-14.90
-5.33
4.74
13.95
21.26
26.24
28.88
29.46
28.26
25.42
21.08
15.49
9.22
3.08
-2.06
-5.58
-7.37
-7.75
-7.28
-6.49
-5.72
-5.03
-4.38
-3.77
-3.37
-3.46
-4.34
-6.29
-9.36
-13.39
-17.93
-22.29
-25.51
-26.60
-24.76
-19.72
-11.89
-2.33
7.54
16.33
23.04
27.22
28.86
28.23
25.63
21.34
15.74
9.35
2.90
-2.74
-6.81
-8.91
-9.10
-7.88
-6.02
-4.21
-2.88
-2.12
-1.81
-1.75
-1.93
-2.49
-3.73
-5.90
-9.10
-13.17
-17.64
-21.73
-24.46
-24.83
-22.16
-16.34
-7.95
1.76
11.30
19.32
24.94
27.89
28.36
26.73
23.41
18.77
13.22
7.32
1.80
-2.61
-5.32
-6.18
-5.45
-3.78
-1.96
-0.60
-0.00
-0.15
-0.82
-1.80
-3.02
-4.56
-6.65
-9.45
-13.04
-17.24
-21.58
-25.30
-27.47
-27.20
-23.90
-17.55
-8.79
1.21
11.05
19.45
25.57
29.05
29.94
28.53
25.17
20.31
14.47
8.33
2.69
-1.74
-4.39
-5.15
-4.31
-2.50
-0.47
1.10
1.83
1.69
0.89
-0.26
-1.54
-2.86
-4.34
-6.25
-8.84
-12.20
-16.14
-20.11
-23.23
-24.49
-23.04
-18.50
-11.19
-2.07
7.48
16.08
22.71
26.90
28.60
28.08
25.69
21.82
16.94
11.61
6.51
2.26
-0.66
-2.06
-2.06
-1.01
0.59
2.20
3.34
3.65
3.03
1.62
-0.24
-2.16
-3.90
-5.46
-7.09
-9.18
-12.06
-15.74
-19.89
-23.80
-26.48
-26.97
-24.57
-19.13
-11.13
-1.61
8.09
16.67
23.15
27.03
28.20
26.95
23.75
19.25
14.17
9.24
5.07
2.12
0.60
0.48
1.58
3.54
5.93
8.28
10.09
10.96
10.63
9.09
6.58
3.58
0.60
-1.97
-4.01
-5.66
-7.27
-9.26
-11.94
-15.40
-19.40
-23.33
-26.28
-27.20
-25.15
-19.73
-11.26
-0.88
9.78
19.03
25.64
29.00
29.24
26.95
22.91
17.88
12.56
7.54
3.30
0.17
-1.67
-2.29
-1.90
-0.81
0.64
2.18
3.58
4.65
5.24
5.28
4.74
3.65
2.08
0.12
-2.12
-4.46
-6.69
-8.63
-10.22
-11.66
-13.30
-15.55
-18.52
-21.79
-24.42
-25.16
-22.98
-17.51
-9.30
0.38
9.89
17.75
23.07
25.59
25.55
23.49
19.99
15.62
10.92
6.45
2.77
0.35
-0.57
-0.04
1.55
3.65
5.72
7.42
8.63
9.43
9.93
10.07
9.67
8.48
6.37
3.43
0.01
-3.42
-6.41
-8.73
-10.36
-11.47
-12.34
-13.30
-14.62
-16.43
-18.61
-20.79
-22.27
-22.27
-20.11
-15.49
-8.67
-0.46
7.92
15.21
20.43
23.16
23.51
22.04
19.37
16.05
12.36
8.47
4.55
0.93
-1.93
-3.60
-3.93
-3.13
-1.70
-0.19
1.00
1.76
2.21
2.46
2.48
2.05
0.93
-0.98
-3.56
-6.40
-9.00
-10.91
-11.93
-12.19
-12.05
-12.08
-12.78
-14.41
-16.85
-19.52
-21.54
-21.94
-20.04
-15.62
-9.08
-1.30
6.54
13.29
18.09
20.52
20.63
18.85
15.77
11.98
7.94
3.97
0.36
-2.57
-4.47
-5.06
-4.29
-2.44
-0.07
2.21
3.89
4.79
5.00
4.74
4.17
3.34
2.18
0.57
-1.46
-3.72
-5.91
-7.72
-9.02
-9.93
-10.81
-12.08
-14.03
-16.52
-19.08
-20.93
-21.21
-19.37
-15.23
-9.13
-1.81
5.76
12.60
17.94
21.30
22.60
22.05
20.04
17.01
13.34
9.38
5.46
1.95
-0.78
-2.42
-2.86
-2.20
-0.74
1.16
3.08
4.74
5.88
6.31
5.88
4.56
2.48
-0.08
-2.69
-4.95
-6.62
-7.73
-8.57
-9.58
-11.17
-13.58
-16.69
-20.06
-22.86
-24.11
-22.94
-18.87
-12.05
-3.34
5.90
14.11
20.02
22.94
22.89
20.46
16.51
11.93
7.42
3.42
0.26
-1.82
-2.65
-2.22
-0.71
1.46
3.73
5.54
6.51
6.47
5.49
3.82
1.74
-0.43
-2.44
-4.16
-5.58
-6.83
-8.06
-9.45
-11.14
-13.25
-15.83
-18.83
-21.95
-24.52
-25.59
-24.21
-19.78
-12.49
-3.35
6.08
14.14
19.63
22.16
22.08
20.21
17.42
14.32
11.16
8.00
4.84
1.86
-0.64
-2.31
-2.96
-2.71
-1.93
-1.10
-0.61
-0.65
-1.14
-1.94
-2.88
-3.91
-5.08
-6.40
-7.88
-9.46
-11.11
-12.85
-14.85
-17.26
-20.10
-23.08
-25.47
-26.31
-24.71
-20.23
-13.13
-4.37
4.68
12.66
18.58
22.01
23.01
21.98
19.40
15.82
11.77
7.82
4.52
2.30
1.35
1.56
2.62
4.08
5.55
6.77
7.64
8.10
8.09
7.54
6.37
4.59
2.33
-0.14
-2.56
-4.75
-6.72
-8.71
-11.06
-14.07
-17.72
-21.62
-24.98
-26.81
-26.24
-22.76
-16.45
-8.01
1.44
10.54
18.02
22.92
24.80
23.75
20.36
15.51
10.13
5.01
0.67
-2.67
-4.94
-6.17
-6.38
-5.64
-4.11
-2.07
0.08
1.96
3.31
4.08
4.41
4.51
4.56
4.52
4.17
3.24
1.54
-0.90
-3.89
-7.18
-10.48
-13.50
-15.82
-16.90
-16.13
-13.10
-7.87
-1.11
6.12
12.63
17.52
20.40
21.37
20.80
19.09
16.55
13.41
9.91
6.38
3.29
1.09
0.10
0.37
1.67
3.54
5.45
7.03
8.10
8.71
9.00
9.03
8.77
8.11
6.96
5.42
3.70
2.03
0.54
-0.87
-2.38
-4.07
-5.70
-6.69
-6.27
-3.78
0.98
7.53
14.86
21.70
26.97
30.08
31.01
30.18
28.13
25.30
21.94
18.14
14.04
9.86
5.97
2.80
0.67
-0.35
-0.44
-0.05
0.37
0.41
-0.13
-1.24
-2.76
-4.50
-6.27
-7.98
-9.56
-10.97
-12.24
-13.49
-14.96
-16.91
-19.46
-22.38
-25.00
-26.41
-25.71
-22.43
-16.75
-9.53
-1.97
4.77
9.87
13.07
14.53
14.56
13.45
11.36
8.38
4.75
0.92
-2.51
-4.90
-5.91
-5.55
-4.22
-2.53
-1.06
-0.19
-0.01
-0.46
-1.34
-2.51
-3.84
-5.26
-6.65
-7.94
-9.14
-10.35
-11.78
-13.62
-15.92
-18.44
-20.61
-21.66
-20.83
-17.74
-12.48
-5.69
1.60
8.29
13.48
16.68
17.81
17.17
15.22
12.52
9.58
6.81
4.55
2.96
2.05
1.65
1.54
1.52
1.46
1.30
1.06
0.75
0.37
-0.06
-0.51
-1.00
-1.58
-2.44
-3.84
-6.02
-9.04
-12.67
-16.32
-19.20
-20.53
-19.76
-16.82
-12.11
-6.43
-0.66
4.45
8.47
11.32
13.04
13.72
13.36
11.88
9.35
6.10
2.71
-0.10
-1.81
-2.28
-1.83
-1.06
-0.53
-0.51
-0.88
-1.30
-1.43
-1.14
-0.61
-0.25
-0.45
-1.48
-3.41
-6.10
-9.23
-12.36
-14.91
-16.22
-15.71
-13.08
-8.53
-2.67
3.51
9.08
13.31
15.95
17.06
16.90
15.73
13.73
11.02
7.78
4.34
1.14
-1.35
-2.81
-3.22
-2.78
-1.95
-1.16
-0.76
-0.85
-1.34
-2.03
-2.72
-3.37
-4.10
-5.13
-6.73
-8.95
-11.56
-13.99
-15.47
-15.33
-13.19
-9.18
-3.83
2.03
7.61
12.30
15.76
17.80
18.38
17.53
15.41
12.36
8.90
5.64
3.11
1.61
1.11
1.30
1.74
2.02
1.89
1.25
0.22
-1.03
-2.33
-3.53
-4.55
-5.42
-6.25
-7.27
-8.70
-10.69
-13.10
-15.45
-17.01
-17.05
-15.15
-11.47
-6.65
-1.66
2.64
5.75
7.53
8.14
7.72
6.32
3.98
0.79
-2.88
-6.52
-9.55
-11.57
-12.44
-12.33
-11.58
-10.59
-9.71
-9.16
-9.01
-9.24
-9.74
-10.34
-10.97
-11.60
-12.27
-13.09
-14.10
-15.26
-16.40
-17.25
-17.37
-16.29
-13.64
-9.33
-3.67
2.67
8.84
14.06
17.88
20.18
21.09
20.83
19.62
17.67
15.23
12.68
10.42
8.84
8.08
8.01
8.27
8.48
8.34
7.84
7.18
6.68
6.57
6.87
7.39
7.77
7.72
7.03
5.64
3.70
1.44
-0.83
-2.70
-3.75
-3.58
-1.97
1.11
5.39
10.44
15.65
20.47
24.40
27.11
28.39
28.16
26.50
23.61
19.91
15.95
12.29
9.47
7.79
7.27
7.63
8.39
9.03
9.15
8.55
7.28
5.60
3.78
2.10
0.64
-0.66
-2.04
-3.78
-6.05
-8.87
-12.01
-15.05
-17.44
-18.66
-18.33
-16.32
-12.82
-8.30
-3.40
1.18
4.80
7.00
7.60
6.73
4.72
2.02
-0.88
-3.60
-5.86
-7.50
-8.46
-8.76
-8.55
-8.05
-7.56
-7.32
-7.41
-7.72
-8.01
-8.08
-7.90
-7.68
-7.77
-8.51
-9.97
-11.97
-13.99
-15.41
-15.74
-14.74
-12.50
-9.33
-5.65
-1.82
1.84
5.11
7.79
9.66
10.57
10.41
9.26
7.33
4.97
2.62
0.65
-0.67
-1.31
-1.41
-1.25
-1.13
-1.24
-1.59
-2.05
-2.48
-2.81
-3.12
-3.61
-4.50
-5.96
-8.00
-10.43
-12.88
-14.79
-15.51
-14.58
-11.87
-7.71
-2.81
1.99
5.99
8.85
10.54
11.27
11.24
10.58
9.37
7.70
5.77
3.87
2.25
1.03
0.17
-0.47
-1.03
-1.58
-2.09
-2.42
-2.47
-2.24
-1.85
-1.61
-1.87
-2.95
-4.97
-7.80
-10.95
-13.69
-15.20
-14.82
-12.31
-7.96
-2.51
3.11
8.03
11.72
14.00
14.95
14.74
13.52
11.42
8.69
5.69
2.92
0.81
-0.42
-0.81
-0.68
-0.43
-0.40
-0.70
-1.29
-1.98
-2.58
-2.99
-3.23
-3.47
-3.95
-4.93
-6.51
-8.60
-10.86
-12.71
-13.51
-12.71
-10.10
-5.86
-0.62
4.79
9.49
12.84
14.54
14.60
13.24
10.80
7.63
4.14
0.83
-1.81
-3.39
-3.77
-3.16
-2.07
-1.12
-0.77
-1.20
-2.21
-3.39
-4.29
-4.64
-4.56
-4.46
-4.89
-6.28
-8.66
-11.58
-14.24
-15.72
-15.37
-13.07
-9.18
-4.44
0.37
4.60
7.83
9.87
10.62
10.08
8.40
5.91
3.06
0.36
-1.78
-3.18
-3.91
-4.20
-4.30
-4.40
-4.54
-4.65
-4.67
-4.55
-4.36
-4.18
-4.18
-4.40
-4.86
-5.54
-6.35
-7.25
-8.08
-8.63
-8.57
-7.55
-5.38
-2.07
2.02
6.38
10.48
13.86
16.29
17.63
17.85
16.97
15.10
12.49
9.58
6.86
4.84
3.77
3.66
4.23
5.07
5.76
6.06
5.96
5.63
5.30
5.21
5.40
5.69
5.73
5.16
3.75
1.57
-0.92
-3.03
-4.04
-3.42
-1.04
2.82
7.55
12.36
16.54
19.51
20.96
20.84
19.36
16.88
13.88
10.86
8.18
6.08
4.67
3.93
3.74
3.93
4.24
4.34
3.99
3.07
1.70
0.23
-0.97
-1.69
-2.06
-2.53
-3.59
-5.58
-8.38
-11.43
-13.90
-15.05
-14.45
-12.14
-8.51
-4.15
0.35
4.48
7.85
10.20
11.35
11.26
10.01
7.83
5.09
2.22
-0.38
-2.39
-3.70
-4.38
-4.63
-4.66
-4.66
-4.73
-4.93
-5.28
-5.78
-6.37
-6.96
-7.47
-7.93
-8.48
-9.37
-10.76
-12.58
-14.43
-15.72
-15.81
-14.31
-11.21
-6.85
-1.85
3.11
7.41
10.57
12.30
12.54
11.48
9.48
7.00
4.51
2.34
0.70
-0.37
-0.90
-1.07
-1.09
-1.20
-1.53
-2.08
-2.70
-3.15
-3.30
-3.20
-3.13
-3.44
-4.43
-6.09
-8.15
-10.11
-11.38
-11.47
-10.12
-7.31
-3.33
1.31
5.93
9.88
12.63
13.89
13.64
12.14
9.78
7.00
4.25
1.87
0.07
-1.08
-1.69
-1.98
-2.25
-2.69
-3.34
-4.04
-4.53
-4.66
-4.41
-4.05
-3.93
-4.41
-5.65
-7.57
-9.77
-11.70
-12.73
-12.36
-10.33
-6.72
-1.99
3.12
7.78
11.29
13.23
13.56
12.53
10.55
8.09
5.55
3.28
1.52
0.38
-0.11
-0.09
0.22
0.51
0.54
0.15
-0.65
-1.67
-2.68
-3.52
-4.15
-4.77
-5.68
-7.14
-9.17
-11.47
-13.40
-14.18
-13.19
-10.18
-5.42
0.36
6.24
11.31
14.95
16.93
17.29
16.29
14.23
11.42
8.22
5.01
2.21
0.16
-0.95
-1.19
-0.85
-0.31
0.05
0.02
-0.49
-1.40
-2.57
-3.83
-5.08
-6.35
-7.81
-9.69
-12.14
-15.04
-17.86
-19.83
-20.18
-18.41
-14.60
-9.35
-3.59
1.74
5.91
8.58
9.70
9.45
8.07
5.82
3.00
-0.03
-2.93
-5.30
-6.84
-7.37
-6.95
-5.83
-4.45
-3.26
-2.56
-2.42
-2.71
-3.20
-3.71
-4.23
-4.90
-5.93
-7.48
-9.49
-11.66
-13.48
-14.37
-13.83
-11.60
-7.70
-2.52
3.31
9.06
14.01
17.67
19.75
20.22
19.24
17.16
14.36
11.28
8.31
5.76
3.87
2.75
2.39
2.64
3.27
3.96
4.46
4.61
4.38
3.87
3.21
2.52
1.80
0.96
-0.18
-1.84
-4.13
-6.97
-10.01
-12.61
-13.98
-13.46
-10.71
-5.98
0.05
6.39
12.10
16.54
19.44
20.86
20.90
19.74
17.51
14.37
10.66
6.85
3.56
1.32
0.40
0.69
1.76
3.00
3.86
4.05
3.56
2.63
1.53
0.48
-0.47
-1.33
-2.26
-3.48
-5.22
-7.62
-10.57
-13.66
-16.18
-17.32
-16.44
-13.36
-8.38
-2.23
4.18
10.05
14.82
18.20
20.12
20.61
19.73
17.63
14.54
10.84
7.07
3.82
1.62
0.71
1.00
2.04
3.24
4.06
4.17
3.58
2.51
1.33
0.35
-0.31
-0.68
-0.99
-1.56
-2.70
-4.63
-7.31
-10.45
-13.45
-15.54
-15.95
-14.24
-10.38
-4.97
1.05
6.62
10.90
13.49
14.38
13.87
12.27
9.84
6.76
3.29
-0.20
-3.20
-5.24
-6.05
-5.73
-4.64
-3.28
-2.03
-1.05
-0.32
0.28
0.83
1.27
1.46
1.25
0.55
-0.69
-2.54
-5.08
-8.31
-11.99
-15.56
-18.17
-18.95
-17.36
-13.42
-7.78
-1.48
4.41
9.13
12.31
13.92
14.14
13.13
11.06
8.14
4.77
1.45
-1.26
-2.90
-3.33
-2.68
-1.36
0.13
1.38
2.15
2.45
2.44
2.32
2.25
2.27
2.25
1.93
1.00
-0.79
-3.48
-6.82
-10.21
-12.79
-13.69
-12.26
-8.35
-2.39
4.68
11.70
17.62
21.76
23.98
24.49
23.71
22.00
19.54
16.40
12.71
8.77
5.10
2.27
0.69
0.45
1.23
2.48
3.57
3.99
3.52
2.21
0.29
-1.91
-4.08
-6.03
-7.66
-9.07
-10.45
-12.03
-13.98
-16.27
-18.61
-20.47
-21.21
-20.23
-17.22
-12.34
-6.20
0.27
6.13
10.63
13.43
14.53
14.10
12.36
9.51
5.83
1.76
-2.03
-4.83
-6.12
-5.85
-4.50
-2.86
-1.72
-1.57
-2.41
-3.85
-5.34
-6.41
-6.88
-6.90
-6.86
-7.19
-8.23
-10.05
-12.46
-15.01
-17.03
-17.84
-16.86
-13.84
-8.98
-2.92
3.46
9.26
13.78
16.63
17.77
17.28
15.37
12.29
8.42
4.30
0.57
-2.17
-3.56
-3.63
-2.77
-1.58
-0.68
-0.46
-0.98
-1.98
-3.09
-3.99
-4.54
-4.84
-5.18
-5.88
-7.16
-9.00
-11.14
-13.14
-14.44
-14.50
-12.96
-9.77
-5.14
0.42
6.17
11.33
15.17
17.17
17.11
15.11
11.56
7.10
2.46
-1.66
-4.73
-6.48
-6.97
-6.54
-5.67
-4.83
-4.26
-4.04
-4.08
-4.26
-4.53
-4.97
-5.65
-6.72
-8.25
-10.24
-12.55
-14.81
-16.44
-16.73
-15.11
-11.34
-5.70
1.02
7.80
13.67
17.90
20.17
20.50
19.12
16.42
12.82
8.80
4.84
1.38
-1.21
-2.77
-3.37
-3.28
-2.88
-2.50
-2.29
-2.26
-2.35
-2.53
-2.95
-3.90
-5.70
-8.46
-11.98
-15.67
-18.65
-20.01
-19.04
-15.51
-9.72
-2.46
5.20
12.18
17.62
21.04
22.29
21.52
19.04
15.36
11.08
6.89
3.37
0.92
-0.37
-0.72
-0.53
-0.25
-0.22
-0.59
-1.37
-2.44
-3.63
-4.81
-5.92
-7.03
-8.39
-10.37
-13.20
-16.79
-20.49
-23.18
-23.58
-20.79
-14.66
-5.99
3.75
12.86
19.98
24.37
25.98
25.19
22.63
18.93
14.69
10.45
6.76
4.02
2.47
2.02
2.34
2.93
3.33
3.31
2.93
2.38
1.88
1.42
0.78
-0.48
-2.77
-6.26
-10.78
-15.73
-20.23
-23.24
-23.86
-21.54
-16.29
-8.74
0.00
8.59
15.75
20.60
22.79
22.40
19.91
15.92
11.07
5.93
1.00
-3.31
-6.67
-8.89
-9.97
-10.13
-9.75
-9.26
-8.99
-9.06
-9.35
-9.69
-9.94
-10.12
-10.51
-11.46
-13.31
-16.12
-19.59
-23.00
-25.30
-25.44
-22.69
-16.91
-8.70
0.76
10.06
17.99
23.73
27.06
28.17
27.47
25.42
22.41
18.82
15.05
11.56
8.75
6.96
6.27
6.48
7.21
7.97
8.41
8.38
7.92
7.16
6.18
4.94
3.35
1.28
-1.33
-4.53
-8.24
-12.29
-16.29
-19.54
-21.14
-20.22
-16.32
-9.62
-1.01
8.17
16.56
23.10
27.26
28.97
28.48
26.15
22.41
17.76
12.76
8.05
4.21
1.67
0.55
0.72
1.73
3.07
4.25
4.96
5.08
4.73
4.08
3.22
2.16
0.74
-1.24
-3.91
-7.21
-10.77
-13.91
-15.80
-15.67
-13.02
-7.87
-0.78
7.28
15.20
21.96
26.88
29.65
30.25
28.94
26.04
22.03
17.38
12.62
8.30
4.83
2.49
1.29
1.00
1.16
1.33
1.17
0.57
-0.29
-1.18
-1.93
-2.52
-3.20
-4.30
-6.13
-8.76
-11.89
-14.89
-16.87
-17.03
-14.89
-10.51
-4.45
2.38
9.04
14.73
18.93
21.32
21.81
20.45
17.47
13.36
8.78
4.42
0.85
-1.63
-3.04
-3.58
-3.59
-3.42
-3.34
-3.48
-3.85
-4.35
-4.88
-5.43
-6.08
-7.09
-8.66
-10.90
-13.59
-16.26
-18.22
-18.81
-17.55
-14.26
-9.19
-2.89
3.81
10.00
14.88
17.88
18.75
17.61
14.83
10.96
6.66
2.53
-0.89
-3.26
-4.44
-4.54
-3.88
-2.86
-1.88
-1.26
-1.11
-1.41
-2.01
-2.77
-3.65
-4.79
-6.40
-8.70
-11.62
-14.77
-17.41
-18.68
-17.94
-14.97
-10.09
-3.97
2.48
8.47
13.39
16.84
18.63
18.75
17.34
14.69
11.28
7.72
4.58
2.37
1.35
1.49
2.51
3.97
5.44
6.66
7.54
8.21
8.78
9.31
9.70
9.69
9.03
7.47
4.94
1.57
-2.19
-5.62
-7.88
-8.18
-6.17
-2.02
3.50
9.33
14.37
17.86
19.46
19.23
17.43
14.39
10.43
5.89
1.17
-3.27
-6.98
-9.60
-11.00
-11.33
-10.91
-10.24
-9.77
-9.74
-10.19
-10.93
-11.71
-12.33
-12.79
-13.31
-14.19
-15.68
-17.77
-20.11
-22.03
-22.79
-21.82
-18.93
-14.39
-8.82
-2.97
2.47
7.03
10.41
12.48
13.19
12.57
10.77
8.06
4.87
1.69
-1.08
-3.17
-4.50
-5.14
-5.29
-5.17
-5.04
-5.07
-5.39
-5.96
-6.68
-7.37
-7.97
-8.53
-9.28
-10.47
-12.20
-14.26
-16.12
-17.06
-16.41
-13.84
-9.48
-3.88
2.13
7.68
12.06
14.82
15.80
15.11
13.07
10.16
6.92
3.87
1.40
-0.28
-1.23
-1.68
-1.92
-2.21
-2.62
-3.09
-3.45
-3.59
-3.50
-3.31
-3.29
-3.71
-4.83
-6.73
-9.31
-12.21
-14.87
-16.57
-16.64
-14.66
-10.63
-5.02
1.32
7.42
12.36
15.57
16.83
16.26
14.23
11.20
7.63
3.99
0.68
-1.97
-3.72
-4.54
-4.56
-4.12
-3.58
-3.26
-3.31
-3.71
-4.32
-5.02
-5.76
-6.65
-7.88
-9.62
-11.88
-14.32
-16.30
-17.03
-15.80
-12.36
-7.01
-0.55
6.05
11.91
16.48
19.53
20.99
20.87
19.19
16.12
12.10
7.77
3.86
0.91
-0.86
-1.65
-1.86
-1.96
-2.27
-2.92
-3.85
-4.92
-6.02
-7.12
-8.31
-9.75
-11.66
-14.21
-17.43
-21.16
-24.92
-27.98
-29.51
-28.79
-25.52
-19.94
-12.86
-5.37
1.41
6.68
10.06
11.54
11.36
9.83
7.26
4.05
0.67
-2.27
-4.21
-4.78
-3.96
-2.15
-0.04
1.72
2.69
2.79
2.30
1.60
1.02
0.64
0.31
-0.31
-1.55
-3.56
-6.27
-9.29
-11.95
-13.47
-13.15
-10.59
-5.83
0.59
7.82
14.80
20.66
24.79
26.96
27.26
25.94
23.33
19.76
15.60
11.29
7.36
4.36
2.64
2.32
3.10
4.42
5.60
6.19
6.01
5.25
4.22
3.17
2.16
1.05
-0.42
-2.45
-5.12
-8.27
-11.56
-14.37
-16.00
-15.77
-13.28
-8.61
-2.36
4.54
11.09
16.53
20.45
22.82
23.73
23.30
21.62
18.84
15.28
11.48
8.08
5.64
4.47
4.56
5.61
7.19
8.84
10.22
11.16
11.59
11.55
11.05
10.15
8.89
7.30
5.43
3.24
0.66
-2.31
-5.51
-8.50
-10.61
-11.13
-9.61
-6.05
-0.96
4.81
10.37
15.00
18.25
19.95
20.05
18.57
15.67
11.64
6.97
2.30
-1.80
-4.92
-6.94
-7.98
-8.33
-8.29
-8.14
-8.12
-8.30
-8.74
-9.34
-9.96
-10.48
-10.84
-11.21
-11.87
-13.21
-15.49
-18.64
-22.21
-25.35
-27.05
-26.47
-23.25
-17.59
-10.28
-2.37
5.10
11.34
15.88
18.49
19.15
17.98
15.25
11.44
7.20
3.24
0.16
-1.73
-2.42
-2.23
-1.59
-0.95
-0.63
-0.69
-1.04
-1.44
-1.71
-1.82
-1.94
-2.34
-3.27
-4.92
-7.25
-10.10
-13.15
-15.94
-17.89
-18.33
-16.77
-13.05
-7.53
-0.97
5.66
11.50
15.98
18.88
20.16
19.82
17.92
14.61
10.24
5.44
1.02
-2.32
-4.11
-4.35
-3.44
-2.02
-0.73
-0.00
0.02
-0.51
-1.32
-2.14
-2.88
-3.61
-4.54
-5.91
-7.86
-10.38
-13.26
-16.09
-18.24
-19.00
-17.79
-14.35
-8.92
-2.20
4.79
11.02
15.74
18.58
19.49
18.65
16.35
12.93
8.87
4.79
1.33
-0.98
-1.96
-1.77
-0.90
0.11
0.81
0.99
0.66
-0.04
-0.90
-1.79
-2.65
-3.58
-4.77
-6.50
-8.95
-12.02
-15.22
-17.72
-18.55
-16.97
-12.75
-6.32
1.37
9.07
15.66
20.32
22.69
22.74
20.73
17.09
12.40
7.37
2.71
-0.95
-3.30
-4.35
-4.44
-4.09
-3.77
-3.70
-3.86
-4.02
-3.95
-3.52
-2.88
-2.33
-2.30
-3.21
-5.31
-8.52
-12.35
-15.89
-17.97
-17.51
-13.92
-7.34
1.26
10.36
18.34
23.92
26.48
26.08
23.24
18.69
13.14
7.26
1.67
-3.05
-6.42
-8.24
-8.61
-7.98
-7.05
-6.47
-6.63
-7.57
-9.02
-10.57
-11.90
-12.92
-13.81
-14.92
-16.57
-18.92
-21.82
-24.76
-26.96
-27.57
-25.95
-21.91
-15.82
-8.56
-1.23
5.16
9.96
12.92
14.16
13.91
12.40
9.86
6.61
3.10
-0.05
-2.23
-3.04
-2.49
-0.97
0.88
2.43
3.30
3.46
3.16
2.74
2.44
2.30
2.11
1.54
0.20
-2.11
-5.38
-9.21
-12.83
-15.30
-15.71
-13.53
-8.78
-2.05
5.66
13.25
19.83
24.78
27.80
28.75
27.64
24.61
20.04
14.56
9.02
4.28
0.99
-0.57
-0.57
0.50
2.00
3.40
4.37
4.85
4.94
4.80
4.50
4.00
3.13
1.69
-0.55
-3.68
-7.62
-12.06
-16.38
-19.72
-21.20
-20.13
-16.37
-10.36
-3.11
4.13
10.28
14.67
17.07
17.60
16.51
14.02
10.36
5.86
1.08
-3.23
-6.30
-7.61
-7.11
-5.25
-2.81
-0.59
0.89
1.50
1.48
1.20
0.91
0.65
0.24
-0.67
-2.33
-4.85
-8.11
-11.74
-15.16
-17.65
-18.49
-17.11
-13.33
-7.46
-0.25
7.24
13.95
19.05
22.18
23.39
22.99
21.37
18.76
15.36
11.34
7.08
3.09
0.06
-1.48
-1.30
0.36
2.88
5.48
7.48
8.57
8.79
8.49
8.02
7.53
6.94
5.92
4.14
1.39
-2.22
-6.29
-10.13
-12.89
-13.72
-11.99
-7.51
-0.65
7.65
16.14
23.55
28.91
31.77
32.14
30.36
26.87
22.10
16.51
10.57
4.85
-0.03
-3.56
-5.46
-5.82
-5.09
-3.91
-2.91
-2.48
-2.76
-3.58
-4.72
-6.00
-7.38
-8.93
-10.73
-12.84
-15.29
-18.08
-21.17
-24.35
-27.15
-28.85
-28.65
-25.96
-20.69
-13.39
-5.06
3.09
10.00
14.98
17.77
18.41
17.13
14.27
10.28
5.64
1.01
-3.04
-5.98
-7.49
-7.57
-6.49
-4.74
-2.88
-1.36
-0.43
-0.14
-0.39
-1.04
-1.99
-3.15
-4.52
-6.07
-7.81
-9.86
-12.38
-15.47
-18.96
-22.31
-24.55
-24.65
-21.88
-16.15
-8.12
0.97
9.73
16.95
21.89
24.30
24.32
22.33
18.77
14.13
8.97
3.81
-0.74
-4.15
-6.00
-6.11
-4.65
-2.18
0.50
2.63
3.70
3.68
2.91
1.85
0.83
-0.14
-1.24
-2.76
-4.87
-7.55
-10.70
-14.14
-17.62
-20.73
-22.80
-22.97
-20.49
-15.08
-7.18
2.04
11.06
18.50
23.46
25.77
25.77
24.07
21.22
17.63
13.56
9.28
5.16
1.64
-0.87
-2.16
-2.35
-1.80
-1.07
-0.66
-0.87
-1.72
-2.93
-4.11
-4.95
-5.33
-5.46
-5.72
-6.59
-8.37
-11.16
-14.75
-18.71
-22.40
-25.05
-25.88
-24.22
-19.72
-12.57
-3.52
6.18
15.14
22.13
26.41
27.75
26.42
22.97
18.12
12.61
7.20
2.59
-0.69
-2.30
-2.27
-0.95
1.05
3.03
4.39
4.84
4.38
3.29
1.98
0.75
-0.26
-1.17
-2.25
-3.82
-6.12
-9.18
-12.75
-16.36
-19.25
-20.58
-19.57
-15.83
-9.49
-1.29
7.60
15.81
22.18
25.98
27.02
25.55
22.17
17.61
12.60
7.83
3.85
1.01
-0.54
-0.93
-0.53
0.11
0.49
0.21
-0.78
-2.27
-3.88
-5.24
-6.14
-6.61
-6.95
-7.59
-8.96
-11.34
-14.72
-18.69
-22.43
-24.91
-25.16
-22.53
-17.03
-9.28
-0.38
8.39
15.98
21.63
24.98
25.95
24.64
21.34
16.53
10.98
5.58
1.24
-1.46
-2.37
-1.85
-0.59
0.68
1.45
1.53
1.03
0.18
-0.81
-1.88
-3.10
-4.62
-6.62
-9.26
-12.61
-16.55
-20.64
-24.12
-25.97
-25.24
-21.37
-14.51
-5.55
4.10
12.96
19.85
24.09
25.52
24.31
20.79
15.43
8.84
1.85
-4.57
-9.55
-12.50
-13.34
-12.49
-10.71
-8.86
-7.59
-7.20
-7.56
-8.33
-9.12
-9.73
-10.19
-10.78
-11.86
-13.71
-16.43
-19.81
-23.35
-26.23
-27.45
-26.05
-21.44
-13.63
-3.43
7.80
18.41
27.00
32.70
35.29
35.00
32.32
27.85
22.18
16.01
10.10
5.21
1.95
0.62
1.12
2.94
5.29
7.33
8.41
8.23
6.89
4.81
2.45
0.19
-1.86
-3.81
-5.87
-8.31
-11.32
-14.95
-18.98
-22.85
-25.58
-26.05
-23.35
-17.19
-8.18
2.30
12.53
21.04
27.00
30.33
31.37
30.55
28.12
24.22
19.02
13.03
7.10
2.25
-0.72
-1.45
-0.22
2.23
4.95
7.14
8.34
8.47
7.74
6.45
4.82
2.97
0.92
-1.38
-3.95
-6.84
-10.06
-13.64
-17.42
-20.97
-23.55
-24.23
-22.20
-17.09
-9.22
0.40
10.38
19.39
26.46
31.19
33.56
33.76
31.99
28.47
23.55
17.81
12.11
7.32
4.13
2.84
3.24
4.78
6.79
8.63
9.84
10.23
9.79
8.70
7.22
5.64
4.16
2.92
1.86
0.89
-0.22
-1.69
-3.75
-6.47
-9.66
-12.74
-14.76
-14.72
-11.88
-6.21
1.54
10.01
17.69
23.41
26.60
27.31
25.92
22.86
18.51
13.19
7.29
1.38
-3.83
-7.73
-9.98
-10.61
-10.00
-8.72
-7.34
-6.27
-5.72
-5.72
-6.19
-6.96
-7.88
-8.81
-9.70
-10.60
-11.69
-13.24
-15.48
-18.47
-21.91
-25.12
-27.15
-27.02
-24.09
-18.31
-10.32
-1.25
7.56
14.94
20.14
22.83
23.09
21.21
17.61
12.77
7.30
1.82
-3.00
-6.62
-8.68
-9.16
-8.35
-6.80
-5.15
-3.94
-3.46
-3.68
-4.36
-5.23
-6.09
-6.92
-7.79
-8.80
-10.02
-11.52
-13.36
-15.58
-18.09
-20.53
-22.18
-22.16
-19.73
-14.63
-7.29
1.29
9.79
17.05
22.20
24.86
24.95
22.61
18.15
12.06
5.06
-1.90
-7.84
-11.93
-13.74
-13.32
-11.19
-8.15
-5.06
-2.60
-1.12
-0.66
-1.02
-1.94
-3.24
-4.94
-7.19
-10.16
-13.88
-18.16
-22.50
-26.10
-28.03
-27.43
-23.81
-17.25
-8.55
0.97
9.82
16.78
21.15
22.86
22.28
19.95
16.37
12.04
7.48
3.33
0.19
-1.47
-1.61
-0.64
0.73
1.74
1.90
1.12
-0.29
-1.89
-3.27
-4.28
-5.00
-5.75
-6.89
-8.81
-11.74
-15.69
-20.27
-24.66
-27.74
-28.37
-25.76
-19.87
-11.46
-1.94
7.21
14.74
19.96
22.70
23.08
21.35
17.76
12.70
6.79
0.88
-4.10
-7.35
-8.52
-7.81
-5.81
-3.31
-1.01
0.73
1.86
2.54
2.97
3.23
3.26
2.85
1.72
-0.37
-3.53
-7.67
-12.31
-16.65
-19.58
-20.00
-17.19
-11.10
-2.49
7.28
16.62
24.26
29.46
32.12
32.50
30.95
27.73
23.06
17.31
11.11
5.35
0.94
-1.52
-1.99
-1.01
0.60
2.04
2.88
3.10
2.99
2.86
2.77
2.56
1.90
0.48
-1.86
-5.07
-8.96
-13.18
-17.17
-20.24
-21.53
-20.30
-16.22
-9.54
-1.15
7.70
15.72
21.93
25.81
27.24
26.35
23.42
18.84
13.13
7.04
1.42
-2.89
-5.34
-5.75
-4.40
-1.93
0.90
3.37
5.05
5.84
5.89
5.52
4.99
4.39
3.57
2.25
0.09
-3.08
-7.10
-11.37
-14.96
-16.72
-15.73
-11.53
-4.36
4.80
14.61
23.64
30.80
35.47
37.46
36.92
34.12
29.46
23.46
16.84
10.40
4.93
1.00
-1.19
-1.82
-1.35
-0.43
0.35
0.51
-0.09
-1.36
-2.95
-4.53
-5.91
-7.18
-8.67
-10.82
-13.92
-17.95
-22.46
-26.61
-29.40
-29.91
-27.59
-22.47
-15.13
-6.59
1.98
9.51
15.27
18.85
20.14
19.23
16.37
11.99
6.73
1.42
-3.15
-6.35
-7.94
-8.06
-7.14
-5.76
-4.42
-3.46
-3.04
-3.11
-3.52
-4.09
-4.69
-5.33
-6.18
-7.52
-9.64
-12.62
-16.22
-19.80
-22.44
-23.21
-21.46
-17.04
-10.38
-2.37
5.88
13.31
19.12
22.85
24.40
23.85
21.49
17.69
12.97
7.94
3.26
-0.47
-2.86
-3.83
-3.64
-2.79
-1.83
-1.21
-1.15
-1.61
-2.40
-3.27
-4.08
-4.82
-5.69
-6.94
-8.85
-11.54
-14.81
-18.12
-20.59
-21.22
-19.24
-14.45
-7.36
0.91
9.00
15.75
20.43
22.85
23.15
21.57
18.39
13.93
8.78
3.71
-0.39
-2.91
-3.70
-3.17
-2.01
-0.95
-0.39
-0.41
-0.80
-1.31
-1.77
-2.17
-2.64
-3.41
-4.71
-6.74
-9.56
-12.98
-16.41
-19.01
-19.84
-18.17
-13.82
-7.19
0.77
8.89
16.02
21.36
24.42
25.08
23.46
19.92
15.04
9.58
4.41
0.35
-2.07
-2.74
-2.04
-0.68
0.50
0.87
0.17
-1.45
-3.53
-5.52
-6.98
-7.80
-8.25
-8.90
-10.34
-12.93
-16.46
-20.12
-22.63
-22.70
-19.53
-13.11
-4.34
5.38
14.58
22.10
27.29
29.93
30.08
27.97
23.99
18.70
12.88
7.41
3.07
0.34
-0.78
-0.69
-0.05
0.48
0.43
-0.36
-1.80
-3.59
-5.45
-7.12
-8.49
-9.59
-10.60
-11.79
-13.46
-15.73
-18.45
-21.07
-22.75
-22.60
-20.02
-14.98
-8.01
-0.13
7.56
14.14
19.10
22.34
23.98
24.22
23.20
21.02
17.87
14.14
10.38
7.21
5.10
4.16
4.17
4.69
5.24
5.50
5.33
4.78
3.86
2.60
0.96
-1.04
-3.39
-5.99
-8.81
-11.85
-15.08
-18.38
-21.42
-23.63
-24.37
-23.10
-19.67
-14.40
-8.03
-1.47
4.48
9.29
12.78
15.03
16.14
16.17
15.09
12.93
9.89
6.41
3.08
0.48
-1.02
-1.38
-0.82
0.29
1.59
2.82
3.81
4.47
4.74
4.55
3.90
2.85
1.49
-0.10
-1.97
-4.19
-6.86
-9.90
-13.03
-15.68
-17.16
-16.81
-14.25
-9.55
-3.30
3.51
9.72
14.31
16.72
16.85
15.08
11.98
8.16
4.08
0.13
-3.45
-6.43
-8.63
-9.97
-10.45
-10.19
-9.40
-8.41
-7.60
-7.35
-7.94
-9.48
-11.83
-14.63
-17.44
-19.87
-21.75
-23.07
-23.97
-24.56
-24.89
-24.97
-24.79
-24.33
-23.52
-22.14
-19.83
-16.20
-11.02
-4.41
3.09
10.62
17.25
22.27
25.30
26.39
25.77
23.86
21.07
17.82
14.51
11.47
8.99
7.23
6.24
5.95
6.23
6.89
7.71
8.51
9.12
9.46
9.52
9.31
8.87
8.18
7.19
5.94
4.49
2.94
1.30
-0.52
-2.73
-5.37
-8.16
-10.41
-11.15
-9.53
-5.22
1.33
9.05
16.63
22.96
27.46
30.04
30.94
30.43
28.67
25.79
21.97
17.57
13.11
9.14
6.10
4.24
3.53
3.79
4.73
6.04
7.46
8.69
9.48
9.62
8.97
7.56
5.55
3.23
0.90
-1.24
-3.21
-5.23
-7.58
-10.41
-13.55
-16.48
-18.47
-18.79
-17.05
-13.30
-8.04
-2.07
3.76
8.74
12.38
14.46
14.95
14.02
11.96
9.14
5.92
2.66
-0.37
-2.96
-4.93
-6.11
-6.46
-5.97
-4.88
-3.52
-2.30
-1.53
-1.39
-1.83
-2.67
-3.69
-4.77
-5.92
-7.23
-8.78
-10.63
-12.77
-15.18
-17.83
-20.62
-23.27
-25.26
