BVP
64.000000
-0.00
-0.00
-0.00
-0.00
-0.00
-0.00
-0.00
-0.00
-0.00
-0.00
0.00
0.01
0.01
-0.00
-0.03
-0.05
-0.05
0.00
0.13
0.36
0.66
1.01
1.37
1.71
2.04
2.39
2.80
3.28
3.86
4.47
5.05
5.52
5.86
6.12
6.39
6.77
7.35
8.19
9.20
10.23
11.12
11.83
12.44
13.16
14.23
15.82
18.11
20.83
23.63
26.16
28.28
30.15
32.21
35.00
38.87
44.09
50.12
56.24
61.74
66.31
70.23
74.30
79.52
86.48
95.54
105.80
116.04
125.08
132.43
138.51
144.56
152.44
161.03
172.31
186.25
202.21
218.53
232.34
239.87
237.30
222.01
193.46
153.89
106.59
55.10
1.74
-52.78
-108.71
-165.75
-221.83
-272.85
-313.51
-339.72
-349.90
-345.66
-331.03
-310.81
-288.83
-267.06
-245.86
-224.79
-203.94
-184.13
-166.58
-152.02
-140.12
-129.61
-118.84
-106.77
-93.25
-79.25
-66.22
-55.37
-47.12
-41.01
-36.00
-30.94
-25.14
-18.52
-11.62
-5.25
-0.11
3.52
5.84
7.39
8.80
10.49
12.57
14.78
16.75
18.19
19.01
19.35
19.45
19.51
19.61
19.69
19.66
19.48
19.21
18.94
18.69
18.42
18.01
17.39
16.62
15.84
15.22
14.82
14.55
14.25
13.79
13.13
12.39
11.76
11.35
11.15
11.07
10.99
10.87
10.70
10.49
10.17
9.67
8.92
8.03
7.18
6.60
6.39
6.48
6.69
6.85
6.88
6.83
6.83
6.95
7.17
7.41
7.55
7.55
7.41
7.20
6.95
6.70
6.49
6.34
6.30
6.35
6.42
6.43
6.31
6.08
5.77
5.46
5.20
4.95
4.68
4.39
4.10
3.88
3.77
3.73
3.69
3.53
3.24
2.86
2.46
2.12
1.82
1.54
1.24
0.94
0.70
0.58
0.61
0.73
0.88
0.99
1.06
1.13
1.22
1.33
1.47
1.64
1.85
2.12
2.41
2.63
2.69
2.51
2.13
1.65
1.20
0.85
0.62
0.48
0.42
0.44
0.57
0.79
1.01
1.13
1.07
0.85
0.54
0.30
0.24
0.39
0.73
1.14
1.50
1.72
1.72
1.54
1.27
1.05
1.02
1.27
1.75
2.32
2.81
3.06
3.03
2.81
2.54
2.35
2.28
2.30
2.33
2.32
2.27
2.19
2.10
1.97
1.76
1.45
1.09
0.75
0.51
0.37
0.32
0.32
0.39
0.53
0.71
0.86
0.86
0.64
0.26
-0.11
-0.29
-0.15
0.24
0.67
0.91
0.85
0.50
0.04
-0.35
-0.59
-0.68
-0.70
-0.75
-0.84
-0.92
-0.93
-0.83
-0.66
-0.54
-0.55
-0.74
-1.08
-1.48
-1.87
-2.23
-2.57
-2.90
-3.12
-3.09
-2.67
-1.84
-0.73
0.41
1.34
1.95
2.29
2.51
2.79
3.18
3.64
4.05
4.34
4.50
4.58
4.63
4.69
4.73
4.73
4.71
4.72
4.79
4.95
5.13
5.26
5.26
5.11
4.87
4.62
4.41
4.24
4.03
3.73
3.27
2.65
1.90
1.08
0.26
-0.49
-1.10
-1.53
-1.79
-1.93
-2.02
-2.14
-2.32
-2.52
-2.70
-2.78
-2.74
-2.60
-2.42
-2.26
-2.15
-2.11
-2.10
-2.08
-2.02
-1.92
-1.78
-1.62
-1.43
-1.19
-0.86
-0.46
-0.03
0.35
0.64
0.83
0.96
1.11
1.36
1.71
2.15
2.59
2.95
3.16
3.15
2.95
2.61
2.23
1.90
1.72
1.71
1.85
2.11
2.46
2.89
3.34
3.75
4.04
4.15
4.13
4.08
4.10
4.25
4.49
4.71
4.83
4.83
4.74
4.64
4.57
4.57
4.65
4.83
5.09
5.41
5.64
5.67
5.42
4.95
4.45
4.16
4.26
4.72
5.41
6.11
6.72
7.27
7.84
8.52
9.25
9.87
10.26
10.36
10.22
9.83
9.06
7.61
5.16
1.70
-2.43
-6.55
-9.95
-12.20
-13.31
-13.66
-13.68
-13.64
-13.59
-13.43
-13.14
-12.84
-12.74
-12.95
-13.35
-13.69
-13.71
-13.31
-12.62
-11.88
-11.32
-10.98
-10.80
-10.62
-10.33
-9.90
-9.35
-8.72
-8.07
-7.44
-6.91
-6.51
-6.21
-5.85
-5.23
-4.18
-2.77
-1.23
0.09
0.89
1.13
0.98
0.80
0.83
1.15
1.60
1.92
1.92
1.61
1.16
0.78
0.58
0.48
0.28
-0.21
-1.07
-2.21
-3.42
-4.45
-5.14
-5.38
-5.17
-4.56
-3.65
-2.57
-1.52
-0.69
-0.21
-0.05
-0.03
0.17
0.87
2.19
4.04
6.10
7.98
9.35
10.09
10.27
10.06
9.62
9.07
8.44
7.79
7.22
6.82
6.71
6.86
7.18
7.51
7.72
7.75
7.64
7.52
7.48
7.61
7.95
8.46
9.08
9.71
10.29
10.73
11.05
11.36
11.78
12.48
13.55
14.96
16.53
18.06
19.36
20.36
21.16
21.96
23.00
24.40
26.14
27.98
29.45
29.94
28.73
25.24
19.23
10.99
1.31
-8.63
-17.63
-24.78
-29.62
-32.14
-32.71
-31.77
-29.83
-27.32
-24.68
-22.31
-20.48
-19.30
-18.62
-18.16
-17.60
-16.73
-15.51
-14.08
-12.65
-11.42
-10.49
-9.81
-9.27
-8.73
-8.09
-7.33
-6.47
-5.60
-4.77
-4.04
-3.39
-2.80
-2.23
-1.67
-1.14
-0.73
-0.53
-0.58
-0.90
-1.33
-1.71
-1.84
-1.74
-1.56
-1.66
-2.37
-3.84
-5.93
-8.24
-10.26
-11.63
-12.22
-12.22
-11.99
-11.91
-12.18
-12.82
-13.63
-14.37
-14.88
-15.12
-15.24
-15.47
-16.06
-17.20
-18.95
-21.19
-23.49
-25.14
-25.18
-22.75
-17.49
-9.77
-0.77
7.89
14.81
19.23
21.31
21.82
21.64
21.34
20.97
20.31
19.16
17.61
16.04
14.83
14.14
13.81
13.42
12.58
11.16
9.39
7.70
6.54
6.10
6.25
6.58
6.63
6.12
5.07
3.76
2.59
1.88
1.73
2.00
2.44
2.75
2.73
2.34
1.63
0.77
-0.09
-0.80
-1.31
-1.62
-1.80
-1.93
-2.07
-2.23
-2.45
-2.74
-3.14
-3.64
-4.18
-4.68
-5.06
-5.33
-5.62
-6.11
-6.93
-8.04
-9.25
-10.25
-10.85
-11.03
-11.00
-11.06
-11.49
-12.42
-13.85
-15.69
-17.70
-19.46
-20.37
-19.74
-17.11
-12.48
-6.44
-0.01
5.75
10.13
12.94
14.51
15.29
15.65
15.71
15.45
14.85
14.03
13.21
12.58
12.21
11.97
11.67
11.12
10.27
9.22
8.18
7.39
7.00
7.05
7.39
7.80
8.04
7.96
7.54
6.89
6.17
5.56
5.14
4.88
4.69
4.49
4.21
3.87
3.48
3.11
2.77
2.48
2.25
2.08
1.98
1.92
1.84
1.70
1.46
1.12
0.72
0.31
-0.03
-0.26
-0.36
-0.39
-0.42
-0.53
-0.76
-1.10
-1.51
-1.88
-2.16
-2.29
-2.27
-2.12
-1.87
-1.53
-1.15
-0.79
-0.49
-0.32
-0.27
-0.29
-0.30
-0.24
-0.07
0.19
0.44
0.63
0.72
0.74
0.76
0.82
0.92
1.03
1.06
0.97
0.76
0.52
0.36
0.39
0.64
1.08
1.62
2.19
2.73
3.18
3.48
3.56
3.37
2.92
2.29
1.67
1.19
0.91
0.79
0.70
0.54
0.27
-0.02
-0.23
-0.29
-0.24
-0.15
-0.11
-0.16
-0.25
-0.31
-0.28
-0.16
0.01
0.18
0.33
0.49
0.68
0.85
0.91
0.72
0.22
-0.51
-1.28
-1.82
-1.98
-1.76
-1.31
-0.84
-0.49
-0.32
-0.26
-0.25
-0.19
-0.07
0.12
0.39
0.76
1.23
1.77
2.31
2.80
3.19
3.45
3.61
3.70
3.72
3.65
3.44
3.04
2.45
1.75
1.05
0.46
0.01
-0.35
-0.79
-1.44
-2.36
-3.49
-4.66
-5.73
-6.65
-7.45
-8.23
-9.00
-9.76
-10.42
-10.97
-11.45
-11.99
-12.69
-13.53
-14.36
-15.00
-15.29
-15.25
-15.07
-15.01
-15.29
-16.01
-17.07
-18.17
-18.84
-18.56
-16.94
-13.89
-9.71
-5.02
-0.57
3.03
5.55
7.13
8.13
8.94
9.73
10.49
11.06
11.32
11.25
11.00
10.71
10.49
10.36
10.24
10.03
9.68
9.19
8.63
8.07
7.57
7.11
6.65
6.14
5.54
4.91
4.30
3.80
3.47
3.33
3.33
3.37
3.33
3.15
2.81
2.44
2.21
2.28
2.70
3.34
3.96
4.33
4.32
3.99
3.52
3.09
2.83
2.72
2.67
2.62
2.56
2.51
2.52
2.57
2.58
2.43
2.06
1.48
0.77
0.04
-0.57
-0.99
-1.19
-1.23
-1.23
-1.29
-1.48
-1.81
-2.17
-2.45
-2.57
-2.52
-2.38
-2.29
-2.30
-2.41
-2.51
-2.47
-2.22
-1.76
-1.18
-0.63
-0.19
0.07
0.16
0.13
0.01
-0.17
-0.37
-0.57
-0.75
-0.89
-0.99
-1.06
-1.14
-1.22
-1.33
-1.43
-1.45
-1.29
-0.86
-0.15
0.75
1.66
2.35
2.66
2.55
2.14
1.61
1.14
0.85
0.73
0.71
0.69
0.63
0.53
0.44
0.41
0.41
0.42
0.35
0.17
-0.12
-0.43
-0.66
-0.72
-0.57
-0.26
0.13
0.44
0.61
0.60
0.50
0.42
0.45
0.64
0.95
1.28
1.51
1.60
1.55
1.45
1.39
1.42
1.52
1.63
1.68
1.63
1.51
1.37
1.29
1.30
1.39
1.48
1.48
1.31
1.00
0.62
0.32
0.19
0.28
0.53
0.80
0.96
0.93
0.68
0.29
-0.15
-0.56
-0.89
-1.14
-1.33
-1.51
-1.71
-1.96
-2.27
-2.58
-2.79
-2.83
-2.69
-2.42
-2.13
-1.91
-1.76
-1.64
-1.46
-1.18
-0.84
-0.55
-0.40
-0.43
-0.60
-0.80
-0.93
-0.94
-0.87
-0.78
-0.71
-0.69
-0.66
-0.57
-0.40
-0.15
0.12
0.35
0.53
0.66
0.79
0.94
1.07
1.09
0.95
0.66
0.31
0.04
-0.05
0.02
0.14
0.18
0.06
-0.16
-0.38
-0.47
-0.40
-0.26
-0.17
-0.20
-0.34
-0.48
-0.47
-0.28
0.07
0.45
0.70
0.72
0.48
0.06
-0.44
-0.88
-1.19
-1.32
-1.26
-1.04
-0.72
-0.35
-0.03
0.19
0.23
0.10
-0.15
-0.39
-0.51
-0.45
-0.21
0.10
0.39
0.59
0.70
0.77
0.84
0.88
0.88
0.77
0.60
0.43
0.35
0.40
0.53
0.63
0.60
0.40
0.08
-0.25
-0.45
-0.45
-0.30
-0.08
0.06
0.04
-0.14
-0.41
-0.60
-0.61
-0.39
-0.02
0.38
0.68
0.82
0.77
0.58
0.29
-0.05
-0.39
-0.65
-0.78
-0.73
-0.53
-0.25
-0.02
0.07
-0.01
-0.22
-0.47
-0.63
-0.64
-0.49
-0.26
-0.03
0.09
0.10
0.04
-0.04
-0.12
-0.22
-0.38
-0.59
-0.76
-0.77
-0.53
-0.06
0.50
0.95
1.16
1.11
0.90
0.66
0.48
0.34
0.19
-0.01
-0.26
-0.48
-0.59
-0.56
-0.42
-0.26
-0.17
-0.21
-0.35
-0.53
-0.66
-0.67
-0.57
-0.36
-0.10
0.15
0.34
0.45
0.47
0.41
0.31
0.22
0.19
0.20
0.22
0.16
-0.00
-0.25
-0.50
-0.66
-0.66
-0.52
-0.32
-0.11
0.08
0.27
0.50
0.75
0.98
1.08
0.99
0.70
0.28
-0.13
-0.40
-0.46
-0.27
0.10
0.55
0.97
1.26
1.35
1.23
0.93
0.53
0.12
-0.21
-0.42
-0.48
-0.43
-0.32
-0.17
-0.03
0.08
0.15
0.16
0.10
-0.00
-0.10
-0.15
-0.15
-0.13
-0.13
-0.16
-0.19
-0.15
0.02
0.30
0.59
0.76
0.74
0.54
0.27
0.07
0.04
0.21
0.52
0.85
1.11
1.27
1.32
1.32
1.34
1.44
1.65
1.99
2.43
2.92
3.38
3.69
3.78
3.62
3.25
2.79
2.38
2.12
2.05
2.12
2.27
2.49
2.78
3.18
3.67
4.23
4.80
5.32
5.75
5.99
5.90
5.23
3.77
1.52
-1.30
-4.22
-6.71
-8.38
-9.14
-9.15
-8.71
-8.11
-7.52
-6.99
-6.55
-6.24
-6.13
-6.26
-6.57
-6.93
-7.18
-7.21
-7.02
-6.69
-6.32
-5.98
-5.72
-5.53
-5.43
-5.40
-5.45
-5.56
-5.71
-5.90
-6.15
-6.45
-6.74
-6.87
-6.62
-5.84
-4.48
-2.72
-0.84
0.86
2.20
3.13
3.72
4.04
4.16
4.08
3.86
3.61
3.46
3.50
3.75
4.12
4.49
4.74
4.80
4.65
4.33
3.93
3.55
3.32
3.34
3.64
4.13
4.68
5.12
5.35
5.32
5.12
4.85
4.66
4.60
4.66
4.73
4.69
4.45
4.02
3.47
2.86
2.20
1.44
0.53
-0.51
-1.54
-2.35
-2.78
-2.81
-2.57
-2.25
-2.01
-1.87
-1.77
-1.62
-1.38
-1.08
-0.82
-0.68
-0.71
-0.87
-1.10
-1.29
-1.39
-1.35
-1.17
-0.88
-0.54
-0.22
0.06
0.29
0.47
0.63
0.73
0.78
0.77
0.74
0.72
0.72
0.71
0.66
0.52
0.29
0.02
-0.22
-0.36
-0.40
-0.39
-0.38
-0.46
-0.60
-0.77
-0.90
-0.95
-0.90
-0.76
-0.54
-0.26
0.05
0.36
0.57
0.62
0.47
0.16
-0.20
-0.51
-0.67
-0.64
-0.44
-0.12
0.24
0.54
0.69
0.66
0.47
0.24
0.08
0.08
0.25
0.53
0.81
1.00
1.09
1.11
1.09
1.07
1.04
0.99
0.91
0.80
0.68
0.57
0.45
0.35
0.30
0.32
0.46
0.75
1.15
1.62
2.09
2.49
2.77
2.90
2.88
2.74
2.55
2.40
2.39
2.59
2.97
3.46
3.92
4.25
4.41
4.47
4.51
4.63
4.90
5.35
5.94
6.61
7.25
7.79
8.13
8.28
8.26
8.22
8.29
8.59
9.13
9.77
10.21
10.04
8.90
6.57
3.12
-1.13
-5.65
-9.92
-13.50
-16.19
-17.99
-19.02
-19.47
-19.51
-19.27
-18.85
-18.34
-17.83
-17.39
-17.07
-16.88
-16.82
-16.91
-17.18
-17.69
-18.44
-19.30
-19.89
-19.64
-18.04
-14.80
-10.08
-4.50
1.09
5.91
9.48
11.71
12.79
13.08
12.88
12.43
11.85
11.22
10.58
9.98
9.45
8.96
8.48
7.96
7.36
6.71
6.07
5.49
5.02
4.68
4.44
4.26
4.09
3.93
3.82
3.76
3.73
3.70
3.62
3.48
3.29
3.10
2.92
2.76
2.58
2.33
1.95
1.39
0.64
-0.31
-1.38
-2.44
-3.33
-3.92
-4.16
-4.10
-3.88
-3.64
-3.45
-3.33
-3.19
-3.01
-2.83
-2.76
-2.93
-3.39
-4.06
-4.72
-5.11
-5.02
-4.39
-3.31
-2.01
-0.73
0.36
1.15
1.59
1.71
1.52
1.13
0.62
0.13
-0.27
-0.54
-0.71
-0.79
-0.70
-0.36
0.33
1.33
2.43
3.35
3.85
3.88
3.58
3.20
2.98
2.99
3.17
3.38
3.51
3.51
3.40
3.20
2.93
2.55
2.08
1.53
1.01
0.59
0.31
0.14
0.01
-0.15
-0.38
-0.63
-0.84
-0.93
-0.87
-0.69
-0.44
-0.17
0.10
0.34
0.53
0.64
0.65
0.56
0.40
0.23
0.08
-0.03
-0.12
-0.23
-0.38
-0.54
-0.67
-0.74
-0.76
-0.75
-0.76
-0.83
-0.92
-0.99
-0.98
-0.85
-0.63
-0.36
-0.13
-0.00
0.01
-0.07
-0.19
-0.28
-0.28
-0.16
0.05
0.27
0.39
0.35
0.16
-0.10
-0.32
-0.45
-0.48
-0.49
-0.51
-0.53
-0.48
-0.30
0.01
0.35
0.60
0.65
0.49
0.20
-0.12
-0.37
-0.50
-0.51
-0.37
-0.08
0.34
0.79
1.13
1.26
1.13
0.81
0.46
0.21
0.13
0.15
0.18
0.09
-0.15
-0.49
-0.81
-1.03
-1.08
-0.98
-0.83
-0.70
-0.63
-0.63
-0.65
-0.63
-0.55
-0.41
-0.29
-0.23
-0.25
-0.34
-0.47
-0.61
-0.76
-0.93
-1.12
-1.28
-1.37
-1.35
-1.24
-1.15
-1.19
-1.42
-1.80
-2.22
-2.51
-2.58
-2.44
-2.22
-2.10
-2.18
-2.46
-2.83
-3.15
-3.33
-3.38
-3.40
-3.53
-3.85
-4.36
-5.00
-5.65
-6.24
-6.68
-6.87
-6.67
-5.97
-4.73
-3.01
-1.06
0.85
2.47
3.69
4.55
5.18
5.71
6.17
6.52
6.66
6.54
6.22
5.82
5.49
5.31
5.28
5.34
5.35
5.23
4.94
4.47
3.89
3.25
2.63
2.07
1.60
1.24
1.03
0.95
0.98
1.09
1.23
1.35
1.42
1.42
1.33
1.15
0.90
0.64
0.41
0.27
0.24
0.33
0.51
0.71
0.89
0.99
0.98
0.86
0.66
0.39
0.06
-0.26
-0.54
-0.70
-0.69
-0.53
-0.28
-0.05
0.05
-0.03
-0.26
-0.54
-0.80
-0.96
-1.04
-1.04
-1.00
-0.90
-0.78
-0.64
-0.53
-0.48
-0.52
-0.61
-0.68
-0.71
-0.66
-0.58
-0.53
-0.53
-0.55
-0.50
-0.30
0.05
0.46
0.78
0.91
0.82
0.58
0.32
0.12
0.02
-0.01
0.01
0.07
0.19
0.40
0.69
0.98
1.17
1.16
0.91
0.46
-0.07
-0.55
-0.90
-1.04
-0.99
-0.81
-0.58
-0.38
-0.22
-0.12
-0.04
0.05
0.20
0.39
0.56
0.66
0.62
0.43
0.17
-0.04
-0.06
0.15
0.54
0.97
1.27
1.31
1.11
0.77
0.45
0.26
0.20
0.20
0.15
-0.04
-0.35
-0.69
-1.00
-1.24
-1.41
-1.54
-1.63
-1.65
-1.55
-1.30
-0.94
-0.57
-0.28
-0.14
-0.16
-0.30
-0.49
-0.69
-0.89
-1.08
-1.20
-1.20
-1.01
-0.64
-0.18
0.26
0.54
0.63
0.60
0.54
0.55
0.63
0.71
0.70
0.53
0.25
-0.06
-0.28
-0.35
-0.28
-0.13
0.03
0.11
0.11
0.02
-0.08
-0.15
-0.16
-0.11
-0.04
-0.00
-0.01
-0.01
0.04
0.20
0.45
0.72
0.89
0.87
0.67
0.35
0.02
-0.22
-0.33
-0.31
-0.18
0.01
0.25
0.49
0.69
0.77
0.70
0.49
0.24
0.01
-0.14
-0.20
-0.23
-0.24
-0.26
-0.27
-0.22
-0.14
-0.04
0.01
0.01
-0.06
-0.16
-0.28
-0.39
-0.48
-0.52
-0.49
-0.42
-0.36
-0.37
-0.50
-0.76
-1.07
-1.33
-1.44
-1.37
-1.13
-0.82
-0.52
-0.27
-0.11
-0.00
0.08
0.18
0.27
0.34
0.31
0.12
-0.25
-0.72
-1.18
-1.49
-1.52
-1.27
-0.81
-0.27
0.22
0.59
0.85
1.04
1.17
1.24
1.20
1.02
0.77
0.54
0.48
0.68
1.11
1.64
2.10
2.34
2.29
2.01
1.63
1.28
1.06
0.98
0.98
1.00
0.99
0.95
0.88
0.83
0.78
0.72
0.61
0.43
0.19
-0.04
-0.17
-0.09
0.23
0.76
1.40
2.03
2.56
2.90
3.04
2.98
2.72
2.25
1.59
0.78
-0.09
-0.94
-1.70
-2.35
-2.87
-3.24
-3.43
-3.41
-3.17
-2.77
-2.32
-1.96
-1.78
-1.81
-2.02
-2.33
-2.64
-2.91
-3.11
-3.21
-3.17
-2.94
-2.55
-2.05
-1.57
-1.24
-1.13
-1.23
-1.43
-1.56
-1.50
-1.14
-0.49
0.33
1.14
1.74
1.97
1.80
1.35
0.80
0.37
0.20
0.30
0.55
0.85
1.11
1.32
1.48
1.59
1.59
1.43
1.10
0.67
0.29
0.09
0.14
0.42
0.76
1.03
1.10
0.98
0.76
0.52
0.32
0.16
-0.02
-0.24
-0.47
-0.64
-0.67
-0.52
-0.25
0.04
0.27
0.41
0.48
0.53
0.60
0.71
0.82
0.88
0.86
0.73
0.51
0.24
-0.01
-0.18
-0.19
-0.06
0.18
0.41
0.56
0.59
0.52
0.45
0.47
0.61
0.85
1.12
1.33
1.40
1.31
1.10
0.83
0.60
0.43
0.33
0.24
0.13
-0.02
-0.13
-0.16
-0.05
0.20
0.52
0.85
1.11
1.28
1.35
1.29
1.10
0.76
0.29
-0.25
-0.77
-1.17
-1.39
-1.43
-1.35
-1.23
-1.13
-1.11
-1.19
-1.37
-1.59
-1.80
-1.93
-1.96
-1.88
-1.73
-1.55
-1.36
-1.17
-0.96
-0.71
-0.44
-0.20
-0.04
0.03
0.05
0.06
0.10
0.15
0.17
0.13
0.03
-0.08
-0.14
-0.11
-0.02
0.08
0.12
0.07
-0.01
-0.05
0.05
0.28
0.61
0.89
1.02
0.90
0.57
0.14
-0.25
-0.46
-0.47
-0.36
-0.22
-0.17
-0.23
-0.40
-0.62
-0.83
-0.98
-1.02
-0.95
-0.78
-0.54
-0.27
-0.02
0.17
0.32
0.43
0.52
0.59
0.62
0.58
0.49
0.38
0.32
0.31
0.32
0.30
0.21
0.07
-0.08
-0.18
-0.23
-0.25
-0.26
-0.27
-0.23
-0.06
0.26
0.65
1.01
1.23
1.26
1.17
1.03
0.89
0.73
0.48
0.14
-0.23
-0.47
-0.43
-0.07
0.54
1.19
1.68
1.87
1.74
1.36
0.87
0.41
0.10
-0.01
0.09
0.34
0.67
0.98
1.18
1.20
1.06
0.82
0.57
0.41
0.38
0.44
0.50
0.47
0.32
0.04
-0.29
-0.63
-0.95
-1.25
-1.52
-1.77
-1.97
-2.09
-2.12
-2.07
-1.93
-1.73
-1.46
-1.13
-0.77
-0.45
-0.23
-0.16
-0.24
-0.45
-0.71
-0.93
-0.98
-0.81
-0.41
0.14
0.67
1.02
1.06
0.79
0.29
-0.26
-0.70
-0.93
-0.94
-0.77
-0.52
-0.27
-0.08
0.02
0.08
0.14
0.20
0.26
0.24
0.10
-0.15
-0.44
-0.62
-0.59
-0.32
0.10
0.54
0.84
0.98
1.02
1.08
1.24
1.46
1.60
1.50
1.09
0.46
-0.20
-0.69
-0.87
-0.74
-0.41
-0.05
0.23
0.36
0.35
0.24
0.10
-0.02
-0.11
-0.15
-0.16
-0.16
-0.16
-0.17
-0.21
-0.29
-0.40
-0.51
-0.54
-0.44
-0.20
0.11
0.35
0.40
0.22
-0.11
-0.43
-0.59
-0.54
-0.32
-0.10
0.03
0.01
-0.09
-0.17
-0.17
-0.08
0.02
0.04
-0.07
-0.27
-0.49
-0.61
-0.60
-0.48
-0.32
-0.23
-0.24
-0.37
-0.57
-0.74
-0.83
-0.78
-0.61
-0.38
-0.14
0.07
0.24
0.39
0.53
0.64
0.70
0.64
0.48
0.26
0.09
0.04
0.14
0.34
0.53
0.62
0.57
0.42
0.26
0.18
0.24
0.42
0.66
0.88
0.99
0.98
0.88
0.76
0.68
0.65
0.64
0.60
0.48
0.29
0.06
-0.12
-0.24
-0.29
-0.29
-0.28
-0.27
-0.28
-0.35
-0.50
-0.72
-0.94
-1.08
-1.07
-0.92
-0.71
-0.54
-0.47
-0.46
-0.42
-0.29
-0.07
0.14
0.27
0.27
0.21
0.20
0.33
0.56
0.81
0.94
0.92
0.76
0.55
0.37
0.24
0.10
-0.12
-0.43
-0.78
-1.06
-1.15
-1.02
-0.72
-0.38
-0.15
-0.09
-0.19
-0.33
-0.39
-0.29
-0.04
0.27
0.52
0.65
0.60
0.41
0.15
-0.07
-0.18
-0.09
0.17
0.52
0.81
0.90
0.75
0.42
0.04
-0.26
-0.41
-0.42
-0.36
-0.27
-0.17
-0.02
0.15
0.30
0.36
0.33
0.22
0.11
0.06
0.07
0.12
0.17
0.21
0.25
0.27
0.22
0.03
-0.30
-0.73
-1.11
-1.29
-1.22
-0.94
-0.59
-0.32
-0.20
-0.21
-0.29
-0.37
-0.43
-0.45
-0.44
-0.37
-0.23
-0.02
0.24
0.47
0.63
0.66
0.57
0.38
0.11
-0.16
-0.35
-0.39
-0.25
0.05
0.36
0.55
0.52
0.28
-0.04
-0.29
-0.36
-0.25
-0.08
0.02
0.02
-0.04
-0.05
0.05
0.24
0.44
0.53
0.49
0.36
0.24
0.20
0.23
0.28
0.32
0.33
0.33
0.35
0.36
0.32
0.20
0.03
-0.12
-0.16
-0.08
0.09
0.28
0.49
0.71
0.98
1.29
1.54
1.66
1.58
1.33
1.05
0.84
0.74
0.71
0.66
0.55
0.40
0.29
0.28
0.35
0.42
0.40
0.25
0.04
-0.11
-0.11
0.05
0.29
0.52
0.69
0.83
0.99
1.21
1.49
1.78
2.05
2.27
2.49
2.76
3.08
3.44
3.79
4.10
4.39
4.71
5.11
5.57
6.05
6.49
6.86
7.21
7.65
8.25
8.95
9.55
9.78
9.44
8.46
7.01
5.32
3.65
2.11
0.75
-0.40
-1.30
-1.82
-1.85
-1.36
-0.42
0.83
2.21
3.58
4.83
5.91
6.84
7.73
8.76
10.16
12.00
14.23
16.57
18.67
20.27
21.32
22.03
22.79
23.98
25.86
28.48
31.64
34.83
37.28
37.92
35.60
29.47
19.38
6.10
-8.73
-23.07
-35.14
-43.88
-49.18
-51.63
-52.09
-51.29
-49.67
-47.52
-45.14
-42.94
-41.41
-40.85
-41.26
-42.29
-43.40
-44.13
-44.28
-43.99
-43.64
-43.64
-44.19
-45.31
-46.82
-48.56
-50.42
-52.24
-53.74
-54.34
-53.31
-50.02
-44.25
-36.34
-26.98
-16.88
-6.50
3.95
14.30
24.10
32.61
39.02
42.86
44.32
44.13
43.23
42.28
41.45
40.51
39.11
37.07
34.59
32.01
29.71
27.85
26.39
25.13
23.86
22.45
20.90
19.31
17.79
16.43
15.25
14.20
13.22
12.23
11.21
10.16
9.10
8.04
7.02
6.00
4.99
3.93
2.83
1.72
0.69
-0.11
-0.58
-0.69
-0.53
-0.28
-0.10
-0.09
-0.24
-0.47
-0.67
-0.81
-0.90
-1.00
-1.17
-1.37
-1.55
-1.63
-1.53
-1.28
-0.94
-0.62
-0.40
-0.31
-0.33
-0.40
-0.44
-0.38
-0.24
-0.06
0.09
0.14
0.11
0.03
-0.04
-0.05
-0.02
0.01
-0.01
-0.08
-0.16
-0.21
-0.19
-0.12
-0.02
0.05
0.08
0.08
0.06
0.02
-0.07
-0.23
-0.47
-0.70
-0.83
-0.75
-0.43
0.08
0.60
0.94
0.97
0.70
0.24
-0.21
-0.49
-0.58
-0.55
-0.51
-0.55
-0.66
-0.76
-0.77
-0.64
-0.41
-0.17
0.00
0.07
0.05
0.01
0.01
0.05
0.11
0.16
0.17
0.14
0.11
0.08
0.05
-0.00
-0.09
-0.21
-0.33
-0.42
-0.47
-0.49
-0.52
-0.57
-0.63
-0.67
-0.65
-0.58
-0.46
-0.34
-0.26
-0.25
-0.34
-0.50
-0.68
-0.78
-0.72
-0.47
-0.10
0.25
0.45
0.46
0.35
0.26
0.32
0.53
0.76
0.87
0.73
0.38
-0.03
-0.35
-0.50
-0.51
-0.50
-0.56
-0.73
-0.97
-1.19
-1.36
-1.49
-1.61
-1.77
-1.94
-2.07
-2.09
-2.00
-1.84
-1.69
-1.64
-1.70
-1.84
-1.95
-1.97
-1.87
-1.71
-1.56
-1.49
-1.52
-1.57
-1.56
-1.40
-1.07
-0.63
-0.17
0.22
0.49
0.66
0.80
0.97
1.21
1.48
1.73
1.87
1.89
1.79
1.62
1.45
1.30
1.19
1.12
1.06
1.01
0.95
0.87
0.80
0.73
0.71
0.72
0.76
0.79
0.78
0.74
0.69
0.67
0.69
0.74
0.76
0.72
0.61
0.53
0.56
0.77
1.18
1.70
2.27
2.81
3.30
3.73
4.10
4.35
4.43
4.27
3.86
3.23
2.44
1.56
0.68
-0.16
-0.91
-1.52
-1.96
-2.19
-2.18
-2.00
-1.73
-1.49
-1.39
-1.45
-1.60
-1.71
-1.69
-1.47
-1.12
-0.73
-0.40
-0.20
-0.15
-0.26
-0.47
-0.73
-0.97
-1.10
-1.08
-0.87
-0.57
-0.28
-0.15
-0.22
-0.43
-0.67
-0.77
-0.64
-0.34
0.04
0.34
0.48
0.50
0.48
0.52
0.64
0.77
0.82
0.71
0.41
-0.03
-0.55
-1.08
-1.54
-1.90
-2.10
-2.16
-2.12
-2.07
-2.07
-2.10
-2.09
-1.95
-1.63
-1.19
-0.75
-0.43
-0.33
-0.42
-0.65
-0.90
-1.05
-1.01
-0.69
-0.09
0.69
1.48
2.04
2.19
1.91
1.34
0.71
0.29
0.19
0.40
0.76
1.10
1.32
1.40
1.39
1.39
1.47
1.62
1.77
1.83
1.73
1.48
1.14
0.84
0.68
0.73
0.94
1.21
1.42
1.44
1.24
0.89
0.50
0.19
0.02
-0.01
0.04
0.07
0.02
-0.13
-0.32
-0.48
-0.52
-0.42
-0.22
-0.01
0.12
0.12
0.05
-0.02
-0.01
0.13
0.35
0.57
0.70
0.70
0.59
0.40
0.22
0.08
-0.01
-0.08
-0.15
-0.29
-0.52
-0.84
-1.23
-1.61
-1.91
-2.07
-2.10
-2.06
-2.00
-1.97
-1.95
-1.85
-1.60
-1.16
-0.55
0.11
0.68
1.06
1.24
1.26
1.21
1.12
1.02
0.93
0.89
0.92
1.05
1.25
1.44
1.53
1.44
1.18
0.79
0.38
0.06
-0.09
-0.02
0.23
0.57
0.88
1.03
0.97
0.74
0.42
0.15
0.01
0.03
0.18
0.44
0.78
1.18
1.59
1.96
2.17
2.16
1.93
1.56
1.22
1.03
1.02
1.14
1.25
1.21
0.99
0.63
0.24
-0.12
-0.42
-0.68
-0.95
-1.21
-1.42
-1.53
-1.54
-1.52
-1.55
-1.72
-1.99
-2.24
-2.34
-2.21
-1.87
-1.45
-1.15
-1.09
-1.29
-1.67
-2.08
-2.40
-2.54
-2.49
-2.25
-1.87
-1.39
-0.89
-0.46
-0.16
-0.04
-0.05
-0.13
-0.16
-0.08
0.18
0.61
1.13
1.66
2.06
2.27
2.26
2.07
1.82
1.60
1.47
1.44
1.46
1.50
1.53
1.58
1.67
1.81
1.96
2.05
2.03
1.89
1.66
1.40
1.17
1.00
0.87
0.70
0.47
0.14
-0.27
-0.74
-1.22
-1.67
-2.05
-2.28
-2.37
-2.31
-2.14
-1.92
-1.68
-1.43
-1.18
-0.93
-0.69
-0.49
-0.36
-0.28
-0.24
-0.19
-0.08
0.07
0.26
0.42
0.50
0.47
0.31
0.06
-0.22
-0.46
-0.62
-0.66
-0.59
-0.47
-0.36
-0.32
-0.37
-0.47
-0.59
-0.66
-0.67
-0.66
-0.69
-0.79
-0.95
-1.09
-1.11
-0.94
-0.60
-0.22
0.05
0.08
-0.11
-0.42
-0.67
-0.75
-0.64
-0.43
-0.23
-0.14
-0.13
-0.18
-0.25
-0.35
-0.52
-0.81
-1.13
-1.38
-1.40
-1.14
-0.64
-0.04
0.54
0.99
1.30
1.49
1.60
1.62
1.57
1.47
1.34
1.23
1.14
1.05
0.96
0.87
0.85
0.92
1.08
1.22
1.24
1.06
0.70
0.27
-0.05
-0.16
-0.03
0.24
0.52
0.68
0.65
0.47
0.22
-0.03
-0.21
-0.31
-0.37
-0.41
-0.43
-0.40
-0.30
-0.10
0.16
0.40
0.54
0.50
0.30
0.02
-0.23
-0.37
-0.37
-0.30
-0.24
-0.27
-0.38
-0.54
-0.64
-0.61
-0.47
-0.25
-0.02
0.14
0.25
0.30
0.33
0.33
0.28
0.15
-0.05
-0.30
-0.55
-0.77
-0.92
-0.99
-0.96
-0.83
-0.65
-0.49
-0.43
-0.50
-0.65
-0.78
-0.77
-0.60
-0.31
-0.05
0.08
0.03
-0.12
-0.23
-0.20
-0.04
0.13
0.16
-0.01
-0.34
-0.69
-0.92
-0.94
-0.81
-0.65
-0.59
-0.69
-0.92
-1.17
-1.36
-1.45
-1.45
-1.43
-1.43
-1.47
-1.54
-1.64
-1.73
-1.73
-1.57
-1.18
-0.56
0.20
0.94
1.50
1.80
1.84
1.75
1.65
1.64
1.74
1.91
2.10
2.28
2.42
2.52
2.54
2.49
2.37
2.24
2.17
2.17
2.23
2.28
2.25
2.10
1.86
1.54
1.16
0.69
0.13
-0.46
-0.98
-1.28
-1.33
-1.15
-0.89
-0.70
-0.65
-0.74
-0.89
-0.99
-0.98
-0.87
-0.70
-0.51
-0.33
-0.17
-0.05
0.02
0.01
-0.07
-0.20
-0.30
-0.33
-0.27
-0.12
0.06
0.20
0.24
0.18
0.01
-0.23
-0.49
-0.74
-0.95
-1.08
-1.09
-0.94
-0.64
-0.23
0.19
0.54
0.74
0.77
0.64
0.43
0.22
0.09
0.06
0.13
0.25
0.38
0.51
0.60
0.64
0.60
0.48
0.30
0.09
-0.14
-0.36
-0.55
-0.71
-0.82
-0.83
-0.74
-0.57
-0.36
-0.21
-0.14
-0.12
-0.04
0.15
0.45
0.75
0.89
0.79
0.49
0.16
-0.02
0.03
0.27
0.54
0.70
0.69
0.58
0.49
0.50
0.62
0.74
0.77
0.64
0.37
0.05
-0.23
-0.39
-0.45
-0.45
-0.45
-0.47
-0.51
-0.54
-0.52
-0.44
-0.35
-0.31
-0.36
-0.51
-0.72
-0.89
-0.95
-0.90
-0.76
-0.63
-0.54
-0.51
-0.51
-0.48
-0.39
-0.23
-0.07
0.03
0.02
-0.13
-0.33
-0.50
-0.54
-0.40
-0.14
0.14
0.30
0.29
0.15
-0.00
-0.04
0.06
0.25
0.39
0.39
0.23
0.02
-0.12
-0.11
0.01
0.14
0.16
0.05
-0.13
-0.24
-0.15
0.14
0.52
0.86
1.00
0.89
0.57
0.16
-0.22
-0.47
-0.53
-0.39
-0.12
0.20
0.45
0.55
0.48
0.25
-0.04
-0.29
-0.41
-0.39
-0.29
-0.23
-0.30
-0.52
-0.84
-1.14
-1.32
-1.32
-1.15
-0.89
-0.60
-0.33
-0.13
-0.04
-0.09
-0.29
-0.58
-0.87
-1.01
-0.91
-0.54
-0.02
0.51
0.90
1.13
1.21
1.23
1.26
1.28
1.28
1.26
1.22
1.22
1.28
1.36
1.44
1.44
1.33
1.13
0.86
0.60
0.38
0.25
0.22
0.27
0.34
0.34
0.22
-0.04
-0.37
-0.67
-0.81
-0.71
-0.40
0.02
0.44
0.74
0.88
0.87
0.74
0.56
0.37
0.18
0.00
-0.16
-0.30
-0.41
-0.45
-0.42
-0.29
-0.10
0.06
0.12
0.03
-0.16
-0.33
-0.37
-0.21
0.12
0.52
0.85
1.03
1.03
0.91
0.74
0.59
0.49
0.44
0.42
0.37
0.26
0.10
-0.09
-0.20
-0.15
0.07
0.40
0.71
0.92
0.98
0.96
0.95
0.97
1.00
0.91
0.62
0.10
-0.54
-1.13
-1.54
-1.71
-1.70
-1.61
-1.56
-1.57
-1.61
-1.61
-1.52
-1.33
-1.10
-0.88
-0.69
-0.53
-0.36
-0.18
-0.02
0.07
0.01
-0.17
-0.41
-0.60
-0.66
-0.54
-0.29
-0.03
0.14
0.15
-0.02
-0.31
-0.65
-0.99
-1.27
-1.45
-1.51
-1.42
-1.14
-0.69
-0.09
0.52
0.98
1.15
0.94
0.45
-0.13
-0.57
-0.73
-0.62
-0.35
-0.08
0.08
0.14
0.19
0.28
0.45
0.62
0.69
0.59
0.36
0.10
-0.06
-0.04
0.13
0.35
0.47
0.41
0.20
-0.04
-0.20
-0.22
-0.14
-0.06
-0.07
-0.18
-0.32
-0.39
-0.34
-0.18
-0.03
-0.00
-0.14
-0.42
-0.73
-0.92
-0.88
-0.61
-0.19
0.22
0.49
0.60
0.60
0.61
0.70
0.86
1.00
0.99
0.80
0.45
0.05
-0.29
-0.47
-0.48
-0.33
-0.09
0.19
0.43
0.55
0.51
0.31
0.03
-0.19
-0.27
-0.20
-0.07
-0.03
-0.18
-0.57
-1.10
-1.61
-1.93
-1.97
-1.76
-1.42
-1.08
-0.88
-0.85
-0.99
-1.23
-1.49
-1.65
-1.67
-1.51
-1.22
-0.86
-0.56
-0.40
-0.40
-0.52
-0.68
-0.79
-0.82
-0.75
-0.63
-0.45
-0.18
0.22
0.80
1.51
2.22
2.78
3.03
2.93
2.55
2.02
1.48
1.04
0.73
0.56
0.52
0.62
0.86
1.16
1.40
1.48
1.32
0.96
0.54
0.19
-0.01
-0.06
-0.03
-0.01
-0.00
0.04
0.14
0.33
0.53
0.63
0.56
0.31
0.01
-0.21
-0.20
0.04
0.40
0.71
0.81
0.68
0.39
0.11
-0.05
-0.08
-0.07
-0.10
-0.21
-0.32
-0.33
-0.20
0.01
0.15
0.10
-0.13
-0.41
-0.56
-0.49
-0.24
0.01
0.10
-0.04
-0.32
-0.59
-0.73
-0.71
-0.58
-0.43
-0.28
-0.11
0.09
0.31
0.47
0.49
0.37
0.15
-0.07
-0.20
-0.25
-0.27
-0.29
-0.27
-0.13
0.24
0.79
1.39
1.83
2.00
1.90
1.71
1.64
1.81
2.18
2.59
2.87
2.98
3.01
3.08
3.32
3.74
4.27
4.87
5.51
6.22
7.05
7.97
8.93
9.87
10.81
11.85
13.15
14.83
16.92
19.34
22.01
24.81
27.67
30.50
33.27
36.01
38.80
41.85
45.40
49.60
54.47
59.84
65.47
71.20
77.05
83.22
90.01
97.68
106.27
115.60
125.32
135.06
144.60
154.04
163.75
174.24
185.87
198.51
211.28
222.52
230.13
232.06
226.80
213.76
193.41
167.29
137.93
108.56
82.77
63.84
54.03
53.99
62.56
77.05
94.01
110.13
122.91
130.87
133.27
129.77
120.11
104.19
82.34
55.45
24.95
-7.62
-41.19
-75.62
-111.67
-150.33
-191.71
-234.21
-274.42
-308.03
-331.35
-342.77
-343.29
-335.92
-324.34
-311.47
-298.69
-286.06
-273.15
-259.83
-246.58
-234.27
-223.63
-214.79
-207.42
-200.95
-195.00
-189.48
-184.58
-180.63
-177.88
-176.54
-176.76
-178.63
-182.18
-187.23
-193.45
-200.42
-207.78
-215.41
-223.48
-232.42
-242.83
-255.35
-270.58
-288.76
-309.27
-330.19
-348.30
-359.75
-361.21
-351.13
-330.34
-301.64
-268.62
-234.18
-199.82
-165.63
-131.18
-96.35
-61.69
-28.13
3.72
34.10
64.04
94.94
128.13
164.45
204.10
246.27
288.95
328.90
362.09
384.75
394.64
391.82
378.66
358.87
336.10
312.96
290.66
269.49
249.57
231.20
214.83
200.60
188.06
176.21
164.00
150.82
136.81
122.75
109.72
98.54
89.45
82.03
75.41
68.74
61.50
53.76
46.05
39.10
33.45
29.24
26.14
23.59
21.04
18.18
15.04
11.84
8.91
6.49
4.68
3.45
2.67
2.18
1.82
1.45
0.96
0.34
-0.32
-0.90
-1.28
-1.40
-1.29
-1.06
-0.84
-0.69
-0.61
-0.56
-0.52
-0.47
-0.46
-0.50
-0.62
-0.82
-1.07
-1.33
-1.59
-1.80
-1.94
-1.96
-1.87
-1.67
-1.44
-1.26
-1.17
-1.22
-1.34
-1.48
-1.52
-1.41
-1.11
-0.63
-0.03
0.62
1.26
1.83
2.26
2.52
2.58
2.44
2.16
1.79
1.37
0.96
0.58
0.26
0.06
0.01
0.13
0.40
0.71
1.00
1.18
1.27
1.28
1.25
1.18
1.05
0.86
0.63
0.45
0.36
0.39
0.50
0.62
0.67
0.59
0.36
0.00
-0.46
-0.95
-1.37
-1.61
-1.60
-1.32
-0.85
-0.35
0.02
0.14
0.04
-0.17
-0.33
-0.33
-0.17
0.07
0.24
0.25
0.12
-0.08
-0.21
-0.24
-0.17
-0.07
0.00
0.03
0.02
0.02
0.05
0.07
0.04
-0.09
-0.31
-0.59
-0.84
-0.98
-0.95
-0.73
-0.37
0.05
0.42
0.67
0.77
0.72
0.62
0.52
0.44
0.39
0.30
0.13
-0.14
-0.46
-0.75
-0.95
-0.98
-0.82
-0.51
-0.08
0.41
0.88
1.26
1.48
1.48
1.27
0.89
0.41
-0.04
-0.38
-0.53
-0.49
-0.31
-0.08
0.09
0.13
0.03
-0.19
-0.41
-0.56
-0.54
-0.38
-0.11
0.15
0.32
0.37
0.35
0.33
0.38
0.48
0.51
0.34
-0.12
-0.77
-1.42
-1.81
-1.79
-1.38
-0.79
-0.24
0.08
0.16
0.10
0.05
0.09
0.18
0.23
0.15
-0.05
-0.26
-0.36
-0.24
0.07
0.46
0.79
0.96
0.96
0.84
0.74
0.70
0.74
0.79
0.79
0.67
0.44
0.14
-0.17
-0.45
-0.63
-0.68
-0.61
-0.47
-0.32
-0.24
-0.26
-0.39
-0.57
-0.77
-0.97
-1.16
-1.31
-1.40
-1.36
-1.18
-0.86
-0.48
-0.13
0.12
0.28
0.38
0.48
0.57
0.63
0.61
0.46
0.22
-0.03
-0.17
-0.15
0.01
0.20
0.34
0.35
0.27
0.18
0.18
0.31
0.54
0.76
0.88
0.84
0.69
0.50
0.35
0.27
0.25
0.20
0.09
-0.06
-0.18
-0.17
0.02
0.32
0.60
0.70
0.53
0.15
-0.31
-0.67
-0.82
-0.75
-0.55
-0.35
-0.21
-0.15
-0.12
-0.07
0.02
0.12
0.19
0.21
0.20
0.15
0.03
-0.18
-0.50
-0.89
-1.26
-1.51
-1.58
-1.51
-1.38
-1.28
-1.25
-1.25
-1.21
-1.10
-0.93
-0.74
-0.59
-0.48
-0.38
-0.29
-0.24
-0.30
-0.53
-0.90
-1.29
-1.57
-1.63
-1.46
-1.15
-0.84
-0.61
-0.44
-0.24
0.07
0.50
0.98
1.41
1.74
1.99
2.20
2.40
2.55
2.58
2.45
2.18
1.91
1.77
1.86
2.16
2.55
2.87
3.01
2.93
2.67
2.29
1.83
1.30
0.71
0.08
-0.57
-1.16
-1.66
-2.00
-2.18
-2.20
-2.10
-1.95
-1.78
-1.65
-1.57
-1.48
-1.35
-1.15
-0.90
-0.71
-0.66
-0.78
-0.98
-1.10
-0.97
-0.52
0.17
0.94
1.55
1.86
1.81
1.51
1.09
0.68
0.35
0.09
-0.12
-0.28
-0.35
-0.26
0.01
0.40
0.80
1.08
1.18
1.14
1.04
0.97
0.97
1.00
1.00
0.93
0.84
0.78
0.78
0.80
0.73
0.52
0.19
-0.16
-0.41
-0.54
-0.62
-0.74
-0.96
-1.23
-1.38
-1.28
-0.89
-0.32
0.24
0.58
0.63
0.42
0.07
-0.30
-0.58
-0.74
-0.76
-0.65
-0.45
-0.23
-0.06
-0.01
-0.09
-0.26
-0.44
-0.57
-0.57
-0.45
-0.22
0.05
0.28
0.42
0.46
0.40
0.28
0.15
-0.01
-0.19
-0.38
-0.55
-0.62
-0.54
-0.34
-0.09
0.08
0.09
-0.06
-0.32
-0.57
-0.73
-0.75
-0.62
-0.36
-0.02
0.34
0.64
0.79
0.70
0.37
-0.12
-0.64
-1.01
-1.14
-0.99
-0.63
-0.17
0.25
0.53
0.63
0.55
0.35
0.13
-0.04
-0.11
-0.06
0.06
0.19
0.27
0.31
0.29
0.25
0.18
0.06
-0.10
-0.25
-0.31
-0.23
-0.02
0.24
0.44
0.50
0.41
0.27
0.14
0.11
0.14
0.20
0.25
0.28
0.27
0.23
0.12
-0.09
-0.38
-0.66
-0.83
-0.80
-0.56
-0.18
0.19
0.47
0.60
0.62
0.60
0.63
0.72
0.83
0.89
0.84
0.66
0.39
0.11
-0.12
-0.25
-0.29
-0.24
-0.10
0.10
0.34
0.55
0.67
0.66
0.55
0.39
0.23
0.10
-0.01
-0.18
-0.42
-0.70
-0.94
-1.02
-0.91
-0.65
-0.35
-0.14
-0.09
-0.17
-0.31
-0.41
-0.43
-0.39
-0.34
-0.34
-0.39
-0.43
-0.41
-0.32
-0.19
-0.05
0.07
0.20
0.34
0.47
0.54
0.45
0.18
-0.25
-0.72
-1.08
-1.21
-1.05
-0.66
-0.13
0.39
0.75
0.85
0.68
0.31
-0.13
-0.48
-0.61
-0.52
-0.30
-0.07
0.05
0.07
0.03
0.02
0.09
0.23
0.37
0.45
0.43
0.31
0.12
-0.12
-0.35
-0.56
-0.70
-0.73
-0.63
-0.42
-0.16
0.04
0.13
0.06
-0.09
-0.19
-0.12
0.16
0.61
1.09
1.43
1.51
1.32
0.93
0.44
-0.01
-0.35
-0.58
-0.68
-0.67
-0.56
-0.36
-0.07
0.23
0.46
0.54
0.40
0.04
-0.46
-0.99
-1.39
-1.55
-1.43
-1.09
-0.63
-0.23
-0.02
-0.05
-0.27
-0.57
-0.84
-1.00
-1.07
-1.11
-1.17
-1.25
-1.31
-1.28
-1.14
-0.95
-0.80
-0.71
-0.66
-0.53
-0.26
0.12
0.46
0.60
0.50
0.25
0.05
0.06
0.32
0.70
1.02
1.16
1.13
1.03
0.98
1.02
1.07
1.06
0.94
0.75
0.60
0.55
0.63
0.78
0.93
1.02
1.02
0.93
0.75
0.54
0.32
0.18
0.16
0.30
0.56
0.85
1.04
1.02
0.75
0.27
-0.29
-0.79
-1.14
-1.32
-1.39
-1.40
-1.40
-1.39
-1.32
-1.16
-0.94
-0.69
-0.47
-0.31
-0.20
-0.11
-0.01
0.13
0.29
0.48
0.66
0.83
0.92
0.94
0.89
0.83
0.79
0.81
0.82
0.76
0.57
0.27
-0.05
-0.24
-0.21
0.04
0.42
0.76
0.95
0.94
0.77
0.52
0.30
0.18
0.15
0.20
0.30
0.45
0.63
0.84
1.05
1.22
1.33
1.36
1.35
1.37
1.50
1.80
2.31
2.98
3.73
4.42
4.96
5.32
5.55
5.77
6.09
6.55
7.11
7.69
8.24
8.77
9.44
10.38
11.74
13.54
15.67
17.91
20.06
21.99
23.70
25.31
27.02
29.00
31.34
34.03
36.96
40.01
43.04
45.97
48.78
51.47
54.17
57.11
60.55
64.65
69.23
73.70
77.16
78.74
77.92
74.69
69.40
62.50
54.30
45.05
35.10
25.01
15.46
6.88
-0.79
-8.06
-15.50
-23.27
-31.02
-38.23
-44.68
-50.67
-56.80
-63.41
-70.09
-75.79
-79.37
-80.29
-79.00
-76.61
-74.25
-72.50
-71.17
-69.64
-67.36
-64.28
-60.80
-57.54
-54.98
-53.24
-52.04
-50.94
-49.48
-47.50
-45.16
-42.90
-41.24
-40.58
-40.97
-42.08
-43.35
-44.22
-44.41
-44.02
-43.58
-43.70
-44.89
-47.27
-50.50
-53.95
-57.00
-59.30
-60.91
-62.27
-63.94
-66.34
-69.63
-73.82
-78.80
-84.21
-89.17
-92.07
-90.82
-83.59
-69.80
-50.70
-29.18
-8.65
8.33
20.92
29.91
36.91
43.22
49.30
54.98
59.99
64.45
68.84
73.52
78.27
82.23
84.35
83.96
81.14
76.73
71.88
67.57
64.24
61.81
59.83
57.82
55.43
52.61
49.54
46.49
43.73
41.39
39.41
37.64
35.98
34.42
33.15
32.47
32.59
33.55
35.10
36.86
38.45
39.74
40.92
42.47
44.89
48.54
53.36
58.90
64.51
69.57
73.83
77.59
81.59
86.74
93.72
102.65
112.94
123.56
133.40
141.78
148.76
155.24
162.72
172.69
186.16
202.81
220.76
236.64
246.30
245.82
232.66
206.46
169.33
125.51
80.36
39.02
4.90
-21.35
-41.85
-60.45
-80.89
-105.09
-132.38
-160.11
-185.26
-205.85
-221.58
-233.18
-241.29
-245.62
-245.16
-239.05
-227.61
-212.57
-196.41
-181.32
-168.24
-156.80
-145.94
-134.75
-123.05
-111.50
-101.16
-92.92
-87.05
-83.08
-80.01
-76.68
-72.26
-66.49
-59.79
-52.98
-46.98
-42.37
-39.16
-36.79
-34.29
-30.71
-25.42
-18.42
-10.23
-1.76
6.10
12.70
17.74
21.28
23.54
24.77
25.21
25.16
24.93
24.84
25.08
25.60
26.11
26.21
25.60
24.19
22.16
19.86
17.62
15.63
13.87
12.21
10.48
8.61
6.60
4.60
2.76
1.27
0.29
-0.11
0.06
0.66
1.47
2.26
2.81
3.02
2.95
2.75
2.65
2.81
3.26
3.90
4.51
4.91
5.03
4.91
4.65
4.34
3.98
3.53
2.95
2.23
1.47
0.75
0.18
-0.22
-0.48
-0.69
-0.95
-1.41
-2.14
-3.13
-4.23
-5.24
-5.93
-6.20
-6.11
-5.82
-5.51
-5.23
-4.93
-4.49
-3.83
-3.02
-2.20
-1.57
-1.22
-1.19
-1.38
-1.68
-1.98
-2.22
-2.38
-2.46
-2.47
-2.40
-2.24
-1.95
-1.53
-0.99
-0.38
0.22
0.71
1.04
1.22
1.28
1.30
1.32
1.33
1.31
1.21
1.05
0.90
0.86
1.06
1.56
2.31
3.16
3.90
4.32
4.27
3.69
2.61
1.10
-0.75
-2.86
-5.18
-7.63
-10.08
-12.36
-14.29
-15.72
-16.63
-17.07
-17.18
-17.04
-16.60
-15.69
-14.09
-11.70
-8.60
-5.10
-1.60
1.50
4.02
5.92
7.36
8.53
9.57
10.49
11.22
11.68
11.79
11.58
11.17
10.73
10.40
10.24
10.21
10.18
9.98
9.53
8.79
7.79
6.61
5.31
3.92
2.46
0.99
-0.45
-1.79
-2.94
-3.86
-4.53
-4.97
-5.23
-5.38
-5.46
-5.44
-5.30
-4.97
-4.42
-3.71
-2.92
-2.15
-1.48
-0.91
-0.39
0.13
0.73
1.40
2.12
2.83
3.51
4.13
4.68
5.14
5.43
5.49
5.21
4.56
3.54
2.26
0.86
-0.53
-1.78
-2.85
-3.75
-4.50
-5.12
-5.60
-5.95
-6.18
-6.35
-6.48
-6.58
-6.56
-6.34
-5.86
-5.15
-4.35
-3.65
-3.16
-2.89
-2.73
-2.54
-2.25
-1.88
-1.53
-1.28
-1.09
-0.86
-0.47
0.12
0.85
1.52
1.93
1.93
1.51
0.81
0.09
-0.37
-0.40
0.05
0.82
1.65
2.26
2.48
2.27
1.77
1.19
0.76
0.58
0.66
0.94
1.29
1.58
1.65
1.37
0.64
-0.53
-1.96
-3.39
-4.48
-5.00
-4.94
-4.45
-3.83
-3.32
-3.06
-2.99
-2.99
-3.00
-3.08
-3.41
-4.15
-5.29
-6.64
-7.91
-8.86
-9.46
-9.96
-10.74
-12.17
-14.42
-17.43
-20.94
-24.63
-28.28
-31.78
-35.14
-38.37
-41.50
-44.60
-47.81
-51.45
-55.84
-61.19
-67.40
-73.95
-80.14
-85.35
-89.44
-92.88
-96.62
-101.65
-108.59
-117.37
-127.30
-137.37
-146.69
-154.91
-162.39
-170.02
-178.92
-189.84
-202.81
-216.90
-230.23
-240.36
-244.75
-241.38
-229.18
-208.22
-179.62
-145.15
-106.71
-65.77
-23.01
21.69
68.65
117.57
166.62
212.36
250.42
276.96
290.15
290.86
282.20
268.24
252.43
236.73
221.61
206.89
192.54
179.03
167.09
157.07
148.61
140.69
132.23
122.66
112.17
101.61
92.03
84.17
78.13
73.39
69.10
64.46
59.07
53.07
47.03
41.65
37.46
34.61
32.87
31.73
30.72
29.53
28.15
26.80
25.82
25.48
25.91
27.08
28.82
30.92
33.23
35.74
38.55
41.87
45.89
50.73
56.38
62.74
69.63
76.86
84.28
91.86
99.70
108.04
117.16
127.34
138.66
150.95
163.83
176.92
190.06
203.51
217.83
233.47
250.35
267.65
283.89
297.42
306.79
310.93
308.97
300.23
284.58
263.02
238.07
213.35
192.28
176.54
165.09
154.58
140.97
121.42
95.59
65.39
33.68
2.75
-26.54
-54.69
-82.67
-111.24
-140.74
-171.49
-204.08
-239.10
-276.36
-314.06
-348.63
-375.46
-390.59
-392.26
-381.64
-362.34
-338.86
-315.02
-292.97
-273.15
-255.06
-238.11
-222.02
-206.82
-192.49
-178.78
-165.24
-151.58
-137.85
-124.46
-112.07
-101.21
-92.07
-84.37
-77.51
-70.81
-63.80
-56.40
-48.91
-41.88
-35.83
-31.08
-27.56
-24.89
-22.54
-20.03
-17.15
-13.99
-10.88
-8.19
-6.15
-4.75
-3.77
-2.96
-2.15
-1.35
-0.70
-0.35
-0.35
-0.60
-0.93
-1.18
-1.24
-1.09
-0.77
-0.33
0.18
0.68
1.11
1.40
1.52
1.48
1.33
1.12
0.86
0.52
0.11
-0.34
-0.75
-1.02
-1.10
-1.05
-0.97
-0.99
-1.13
-1.33
-1.46
-1.41
-1.16
-0.82
-0.57
-0.54
-0.74
-1.05
-1.30
-1.34
-1.16
-0.87
-0.65
-0.66
-0.96
-1.55
-2.33
-3.16
-3.93
-4.53
-4.88
-4.99
-4.93
-4.88
-5.01
-5.48
-6.30
-7.36
-8.43
-9.31
-9.88
-10.23
-10.54
-11.06
-11.92
-13.12
-14.49
-15.81
-16.90
-17.69
-18.26
-18.76
-19.37
-20.13
-20.95
-21.55
-21.44
-20.09
-16.97
-11.73
-4.36
4.74
14.71
24.39
32.61
38.48
41.64
42.29
41.05
38.69
35.81
32.76
29.69
26.65
23.73
21.07
18.74
16.67
14.64
12.41
9.85
7.06
4.33
1.99
0.26
-0.84
-1.48
-1.91
-2.34
-2.84
-3.37
-3.81
-4.07
-4.12
-4.02
-3.89
-3.87
-4.03
-4.37
-4.76
-5.02
-5.03
-4.72
-4.16
-3.48
-2.81
-2.22
-1.75
-1.39
-1.15
-1.02
-0.99
-1.03
-1.02
-0.90
-0.64
-0.27
0.09
0.37
0.52
0.59
0.67
0.81
1.02
1.25
1.41
1.41
1.24
0.93
0.54
0.13
-0.26
-0.60
-0.88
-1.10
-1.26
-1.35
-1.36
-1.30
-1.19
-1.06
-0.97
-0.96
-1.02
-1.08
-1.02
-0.74
-0.21
0.51
1.22
1.72
1.84
1.54
0.93
0.24
-0.33
-0.63
-0.62
-0.40
-0.12
0.12
0.26
0.31
0.29
0.23
0.11
-0.08
-0.30
-0.50
-0.59
-0.52
-0.33
-0.10
0.08
0.17
0.18
0.17
0.21
0.31
0.41
0.41
0.25
-0.07
-0.47
-0.79
-0.93
-0.85
-0.61
-0.37
-0.28
-0.40
-0.70
-1.04
-1.26
-1.28
-1.14
-0.94
-0.81
-0.84
-0.98
-1.16
-1.28
-1.32
-1.30
-1.25
-1.21
-1.14
-1.03
-0.90
-0.83
-0.87
-0.94
-0.73
0.17
2.13
5.28
9.33
13.71
17.76
20.98
23.10
24.06
23.88
22.53
20.03
16.54
12.54
8.75
5.90
4.41
4.21
4.75
5.29
5.24
4.43
3.12
1.87
1.21
1.43
2.41
3.68
4.61
4.61
3.41
1.04
-2.11
-5.53
-8.73
-11.41
-13.45
-14.87
-15.69
-15.96
-15.68
-14.87
-13.66
-12.17
-10.61
-9.13
-7.85
-6.84
-6.13
-5.67
-5.29
-4.80
-3.94
-2.55
-0.66
1.57
3.83
5.88
7.61
9.08
10.51
12.06
13.81
15.66
17.36
18.66
19.40
19.65
19.64
19.74
20.30
21.58
23.64
26.35
29.24
31.60
32.49
30.96
26.40
18.77
8.75
-2.40
-13.16
-22.21
-28.74
-32.52
-33.82
-33.18
-31.20
-28.47
-25.48
-22.66
-20.32
-18.62
-17.53
-16.85
-16.27
-15.48
-14.30
-12.75
-11.03
-9.42
-8.20
-7.50
-7.25
-7.25
-7.20
-6.88
-6.21
-5.25
-4.15
-3.09
-2.14
-1.29
-0.45
0.47
1.46
2.45
3.30
3.86
4.07
3.93
3.50
2.85
2.05
1.16
0.21
-0.73
-1.65
-2.54
-3.39
-4.17
-4.77
-5.05
-4.89
-4.30
-3.41
-2.47
-1.71
-1.26
-1.12
-1.17
-1.31
-1.46
-1.61
-1.79
-1.98
-2.15
-2.23
-2.17
-1.95
-1.58
-1.11
-0.53
0.11
0.77
1.34
1.74
1.89
1.75
1.39
0.90
0.39
-0.06
-0.40
-0.64
-0.77
-0.79
-0.69
-0.46
-0.13
0.24
0.58
0.85
1.02
1.09
1.05
0.92
0.69
0.38
0.01
-0.37
-0.74
-1.09
-1.45
-1.86
-2.32
-2.79
-3.21
-3.51
-3.66
-3.65
-3.54
-3.41
-3.35
-3.43
-3.68
-4.09
-4.58
-5.06
-5.46
-5.80
-6.18
-6.73
-7.54
-8.61
-9.89
-11.33
-12.99
-15.04
-17.72
-21.22
-25.53
-30.41
-35.40
-39.94
-43.55
-45.95
-47.12
-47.30
-46.89
-46.33
-46.02
-46.16
-46.69
-47.13
-46.63
-44.05
-38.34
-28.88
-15.92
-0.61
15.15
29.23
39.88
46.11
47.84
45.65
40.44
33.13
24.50
15.25
6.02
-2.60
-10.16
-16.49
-21.80
-26.58
-31.49
-37.08
-43.62
-50.98
-58.74
-66.24
-72.95
-78.60
-83.41
-87.92
-92.80
-98.37
-104.31
-109.50
-112.22
-110.59
-102.99
-88.52
-67.32
-40.64
-10.74
19.48
47.16
70.07
87.08
98.26
104.52
107.08
107.02
105.00
101.44
96.67
91.07
85.06
78.94
72.78
66.55
60.29
54.34
49.38
46.23
45.50
47.26
50.89
55.17
58.68
60.29
59.45
56.40
51.86
46.78
41.90
37.59
33.89
30.63
27.66
24.93
22.50
20.49
18.92
17.74
16.85
16.13
15.51
14.96
14.51
14.17
13.93
13.75
13.56
13.27
12.86
12.35
11.77
11.23
10.82
10.61
10.61
10.74
10.78
10.45
9.44
7.64
5.20
2.62
0.63
-0.03
1.13
4.16
8.61
13.71
18.66
22.84
26.05
28.52
30.72
33.15
36.09
39.42
42.61
44.84
45.18
42.84
37.33
28.75
17.83
5.92
-5.34
-14.43
-20.38
-23.05
-23.07
-21.45
-19.22
-17.08
-15.38
-14.26
-13.80
-14.10
-15.12
-16.59
-17.98
-18.67
-18.18
-16.41
-13.68
-10.61
-7.89
-6.05
-5.31
-5.55
-6.41
-7.48
-8.42
-9.05
-9.39
-9.58
-9.83
-10.33
-11.22
-12.52
-14.18
-16.05
-17.92
-19.54
-20.69
-21.20
-20.99
-20.06
-18.52
-16.52
-14.30
-12.13
-10.26
-8.87
-7.94
-7.33
-6.84
-6.31
-5.68
-5.00
-4.39
-3.91
-3.59
-3.34
-3.08
-2.71
-2.19
-1.55
-0.85
-0.20
0.28
0.51
0.45
0.12
-0.45
-1.18
-2.00
-2.81
-3.53
-4.09
-4.49
-4.76
-4.96
-5.14
-5.30
-5.38
-5.33
-5.15
-4.87
-4.61
-4.40
-4.25
-4.11
-3.89
-3.56
-3.11
-2.60
-2.11
-1.69
-1.38
-1.20
-1.13
-1.17
-1.30
-1.49
-1.72
-1.91
-2.00
-1.89
-1.56
-1.05
-0.50
-0.07
0.07
-0.11
-0.50
-0.92
-1.16
-1.10
-0.74
-0.24
0.25
0.60
0.76
0.78
0.72
0.63
0.56
0.48
0.38
0.26
0.12
-0.03
-0.14
-0.21
-0.22
-0.18
-0.13
-0.09
-0.11
-0.17
-0.25
-0.29
-0.26
-0.13
0.05
0.20
0.22
0.01
-0.43
-1.01
-1.57
-1.92
-1.97
-1.73
-1.31
-0.86
-0.49
-0.21
0.03
0.30
0.59
0.84
0.93
0.77
0.40
-0.07
-0.50
-0.76
-0.85
-0.80
-0.68
-0.51
-0.29
-0.01
0.31
0.58
0.70
0.63
0.41
0.16
-0.00
-0.05
-0.01
0.02
-0.03
-0.19
-0.41
-0.65
-0.86
-1.03
-1.13
-1.14
-1.02
-0.76
-0.38
0.04
0.40
0.59
0.55
0.33
0.03
-0.19
-0.20
0.04
0.47
0.93
1.28
1.41
1.32
1.05
0.68
0.29
-0.07
-0.34
-0.48
-0.45
-0.22
0.16
0.62
1.04
1.33
1.42
1.32
1.04
0.67
0.31
0.05
-0.05
0.05
0.28
0.57
0.83
1.01
1.10
1.11
1.06
0.92
0.67
0.33
-0.08
-0.46
-0.77
-1.00
-1.16
-1.30
-1.39
-1.38
-1.20
-0.85
-0.39
0.00
0.21
0.15
-0.12
-0.46
-0.75
-0.89
-0.88
-0.80
-0.72
-0.69
-0.72
-0.78
-0.85
-0.89
-0.91
-0.91
-0.92
-0.98
-1.11
-1.33
-1.62
-1.94
-2.24
-2.48
-2.62
-2.68
-2.64
-2.50
-2.22
-1.77
-1.16
-0.46
0.23
0.77
1.08
1.16
1.05
0.86
0.70
0.65
0.75
0.98
1.29
1.60
1.86
2.03
2.13
2.16
2.12
2.02
1.87
1.70
1.57
1.54
1.62
1.77
1.91
1.95
1.84
1.58
1.25
0.91
0.60
0.34
0.14
0.00
-0.07
-0.10
-0.10
-0.15
-0.28
-0.49
-0.73
-0.91
-0.90
-0.64
-0.13
0.52
1.11
1.44
1.38
0.92
0.18
-0.56
-1.06
-1.14
-0.75
-0.02
0.84
1.60
2.06
2.11
1.72
0.93
-0.12
-1.22
-2.16
-2.74
-2.88
-2.64
-2.16
-1.56
-0.97
-0.42
0.04
0.39
0.58
0.62
0.57
0.53
0.59
0.77
0.97
1.09
1.00
0.66
0.15
-0.44
-0.96
-1.31
-1.45
-1.38
-1.15
-0.86
-0.60
-0.45
-0.40
-0.42
-0.46
-0.49
-0.51
-0.54
-0.58
-0.62
-0.60
-0.52
-0.36
-0.17
0.00
0.11
0.12
0.05
-0.10
-0.28
-0.44
-0.55
-0.61
-0.66
-0.71
-0.79
-0.89
-0.91
-0.80
-0.50
-0.06
0.42
0.78
0.89
0.72
0.35
-0.05
-0.29
-0.24
0.09
0.55
0.94
1.10
0.99
0.71
0.43
0.32
0.42
0.64
0.85
0.91
0.79
0.55
0.33
0.23
0.29
0.46
0.66
0.77
0.77
0.68
0.55
0.46
0.41
0.40
0.38
0.34
0.27
0.22
0.23
0.30
0.38
0.40
0.31
0.10
-0.17
-0.44
-0.63
-0.72
-0.71
-0.62
-0.49
-0.35
-0.22
-0.11
-0.06
-0.09
-0.17
-0.27
-0.35
-0.35
-0.26
-0.12
-0.01
-0.01
-0.14
-0.40
-0.68
-0.88
-0.91
-0.77
-0.53
-0.29
-0.15
-0.10
-0.12
-0.13
-0.10
-0.03
0.02
0.01
-0.10
-0.27
-0.45
-0.61
-0.75
-0.85
-0.87
-0.75
-0.44
0.07
0.68
1.21
1.50
1.47
1.14
0.66
0.20
-0.11
-0.24
-0.20
-0.08
0.06
0.20
0.33
0.48
0.67
0.89
1.11
1.29
1.37
1.36
1.28
1.19
1.18
1.30
1.55
1.85
2.11
2.21
2.11
1.84
1.58
1.50
1.72
2.25
2.96
3.65
4.13
4.35
4.43
4.59
5.09
6.06
7.45
9.02
10.42
11.29
11.49
11.18
10.82
11.00
12.19
14.45
17.39
20.29
22.41
23.38
23.39
23.17
23.66
25.58
29.11
33.73
38.48
42.40
44.93
46.12
46.63
47.42
49.42
53.37
59.68
68.17
77.68
85.67
88.46
82.35
65.27
38.14
5.15
-27.58
-54.26
-71.53
-79.40
-80.40
-77.90
-74.37
-70.71
-66.69
-61.97
-56.84
-52.23
-49.09
-47.73
-47.54
-47.27
-45.69
-42.20
-37.08
-31.42
-26.47
-23.18
-21.76
-21.65
-21.91
-21.62
-20.31
-18.09
-15.52
-13.23
-11.67
-10.92
-10.71
-10.63
-10.34
-9.69
-8.75
-7.77
-7.01
-6.63
-6.66
-7.04
-7.66
-8.46
-9.46
-10.75
-12.44
-14.63
-17.35
-20.60
-24.30
-28.32
-32.47
-36.48
-40.05
-43.00
-45.31
-47.18
-48.96
-51.00
-53.45
-56.24
-59.16
-61.79
-63.57
-63.64
-60.93
-54.45
-43.73
-29.29
-12.77
3.55
17.54
27.99
34.91
39.23
42.06
44.01
44.99
44.54
42.34
38.64
34.23
29.96
26.32
23.17
19.92
15.90
10.81
4.85
-1.40
-7.29
-12.41
-16.77
-20.78
-25.05
-30.14
-36.31
-43.45
-51.11
-58.72
-65.84
-72.39
-78.65
-85.09
-92.06
-99.55
-107.18
-114.40
-120.73
-126.02
-130.48
-134.65
-139.36
-145.72
-155.06
-168.44
-185.93
-205.78
-224.26
-236.22
-236.67
-222.66
-194.26
-154.49
-108.20
-60.53
-15.78
23.22
55.43
81.69
104.62
127.94
155.01
187.14
222.49
256.36
282.84
297.13
297.29
284.55
262.33
234.66
204.94
175.62
148.46
124.85
105.65
90.88
79.39
69.13
57.76
43.66
26.59
7.61
-11.35
-28.57
-43.13
-55.28
-66.09
-76.83
-88.39
-101.17
-115.00
-129.52
-144.34
-159.10
-173.50
-187.45
-201.17
-215.14
-229.61
-243.89
-255.90
-262.41
-259.95
-246.28
-221.31
-187.16
-147.26
-104.83
-61.55
-17.28
29.24
78.81
130.34
180.38
223.95
256.30
274.76
279.69
274.19
262.59
248.82
235.15
222.14
209.42
196.70
184.33
173.12
163.78
156.37
150.18
144.17
137.56
130.13
122.25
114.69
108.13
102.95
99.16
96.53
94.75
93.60
93.00
92.90
93.25
93.92
94.81
95.99
97.81
100.76
105.31
111.53
118.95
126.73
133.98
140.19
145.53
150.76
156.92
165.02
175.84
189.71
206.26
223.97
240.09
250.83
252.44
242.48
220.70
189.21
151.39
110.32
67.53
22.89
-24.31
-73.73
-122.84
-167.21
-201.99
-223.76
-231.82
-228.28
-217.30
-203.65
-191.49
-183.39
-180.07
-180.54
-182.76
-184.36
-183.48
-179.24
-171.76
-161.76
-149.97
-136.81
-122.41
-107.08
-91.58
-77.12
-64.88
-55.38
-48.18
-42.04
-35.59
-27.88
-18.88
-9.44
-0.82
5.98
10.70
13.96
17.01
21.05
26.70
33.68
40.99
47.39
52.02
54.79
56.40
58.05
60.94
65.71
72.17
79.34
85.84
90.40
92.27
91.46
88.62
84.80
81.02
77.93
75.72
74.17
72.85
71.36
69.53
67.48
65.80
65.41
67.12
71.06
75.95
78.80
75.33
61.23
33.92
-6.01
-54.28
-103.97
-147.68
-179.90
-198.50
-204.75
-202.08
-194.25
-184.09
-173.09
-161.91
-151.03
-141.17
-133.02
-126.70
-121.34
-115.25
-106.65
-94.54
-79.29
-62.51
-46.46
-33.06
-23.17
-16.42
-11.55
-7.14
-2.28
3.11
8.39
12.63
15.15
15.78
14.81
12.77
10.13
7.18
4.10
1.02
-1.85
-4.26
-6.01
-7.02
-7.37
-7.21
-6.68
-5.84
-4.72
-3.35
-1.79
-0.23
1.11
2.00
2.26
1.91
1.14
0.24
-0.45
-0.77
-0.72
-0.47
-0.21
-0.09
-0.09
-0.10
-0.03
0.10
0.14
-0.11
-0.79
-1.85
-3.08
-4.19
-4.96
-5.37
-5.56
-5.78
-6.22
-6.88
-7.63
-8.23
-8.50
-8.40
-8.04
-7.61
-7.24
-6.96
-6.70
-6.37
-5.94
-5.53
-5.32
-5.48
-6.08
-7.02
-8.09
-9.05
-9.73
-10.08
-10.18
-10.17
-10.20
-10.39
-10.78
-11.33
-11.88
-12.09
-11.47
-9.56
-6.10
-1.18
4.73
10.91
16.63
21.42
25.16
28.03
30.27
31.97
32.91
32.61
30.59
26.70
21.28
15.24
9.67
5.58
3.46
3.23
4.35
6.11
7.96
9.64
11.19
12.76
14.50
16.41
18.42
20.36
22.12
23.66
25.14
26.93
29.52
33.32
38.47
44.63
51.06
56.99
61.79
65.34
68.00
70.39
73.16
76.90
82.10
89.05
97.42
105.88
111.88
112.26
104.35
87.22
62.20
32.45
1.70
-26.93
-51.63
-71.65
-86.68
-96.42
-100.61
-99.59
-94.66
-87.92
-81.59
-77.12
-74.77
-73.70
-72.67
-70.57
-66.98
-62.15
-56.74
-51.53
-47.19
-44.05
-42.17
-41.35
-41.25
-41.52
-41.79
-41.79
-41.35
-40.40
-38.99
-37.25
-35.34
-33.41
-31.56
-29.86
-28.30
-26.80
-25.24
-23.51
-21.56
-19.49
-17.49
-15.72
-14.19
-12.74
-11.14
-9.20
-6.98
-4.71
-2.66
-1.04
0.17
1.09
1.82
2.35
2.58
2.38
1.79
1.00
0.23
-0.39
-0.92
-1.55
-2.44
-3.52
-4.45
-4.71
-3.81
-1.55
1.87
5.94
9.98
13.37
15.76
17.05
17.37
16.90
15.84
14.41
12.88
11.62
10.99
11.24
12.34
14.03
15.86
17.46
18.62
19.34
19.64
19.47
18.68
17.13
14.90
12.44
10.39
9.15
8.46
7.15
3.38
-4.75
-18.40
-37.41
-60.24
-84.33
-106.96
-126.02
-140.60
-151.02
-158.45
-164.32
-169.66
-174.69
-178.83
-180.82
-179.21
-172.87
-161.53
-146.15
-129.08
-113.61
-103.12
-99.64
-102.78
-109.26
-113.62
-109.91
-93.59
-63.08
-20.23
30.32
82.48
130.29
169.14
196.51
212.07
217.29
214.64
206.59
194.92
180.39
163.15
143.36
121.72
99.51
78.19
58.80
41.75
26.96
14.32
4.01
-3.58
-8.30
-10.72
-12.15
-14.31
-18.50
-25.10
-33.42
-42.16
-49.97
-55.95
-59.83
-61.78
-62.24
-61.77
-60.82
-59.45
-57.12
-52.59
-44.32
-31.14
-12.95
8.95
32.25
54.38
73.49
88.83
100.74
110.03
117.37
123.01
126.80
128.57
128.54
127.58
127.19
129.17
135.04
145.20
158.41
171.79
181.72
185.17
181.03
170.67
157.47
145.54
138.05
136.08
138.33
141.94
143.94
142.64
138.27
132.79
128.86
128.75
133.71
143.95
158.90
177.36
197.37
216.01
229.41
233.55
225.53
204.69
173.03
134.33
92.71
51.13
10.68
-29.30
-70.39
-113.99
-160.20
-207.11
-250.88
-286.57
-309.75
-318.15
-312.64
-296.95
-275.94
-253.73
-232.37
-211.87
-191.33
-170.28
-149.32
-129.71
-112.45
-97.48
-83.85
-70.47
-56.98
-44.08
-33.01
-24.73
-19.03
-14.49
-9.10
-1.31
9.16
21.22
32.98
42.73
49.79
54.66
58.73
63.50
70.02
78.46
87.81
95.68
98.49
92.28
74.21
44.24
5.94
-34.14
-68.70
-92.35
-103.48
-104.27
-99.06
-92.07
-85.78
-80.74
-76.44
-72.47
-69.14
-67.20
-67.24
-69.21
-72.28
-75.25
-77.03
-77.03
-75.32
-72.58
-69.79
-67.81
-67.06
-67.34
-68.00
-68.33
-68.00
-67.24
-66.77
-67.42
-69.74
-73.83
-79.33
-85.64
-92.08
-98.08
-103.24
-107.31
-110.29
-112.40
-114.13
-116.11
-119.02
-123.39
-129.53
-137.51
-147.11
-157.89
-169.26
-180.60
-191.45
-201.69
-211.59
-221.54
-231.59
-240.86
-247.35
-248.25
-240.83
-223.50
-196.49
-161.82
-122.53
-81.58
-40.94
-1.32
37.62
76.78
117.19
159.62
204.31
250.52
296.27
338.37
373.07
397.21
409.39
410.50
403.39
391.76
378.79
366.22
354.18
341.65
327.22
309.69
288.37
263.06
234.10
202.47
169.89
138.68
111.31
89.74
74.82
66.14
62.40
62.12
64.28
68.53
75.00
83.75
94.40
106.04
117.59
128.33
138.26
148.29
159.99
174.96
193.95
215.99
238.00
255.34
263.17
258.15
239.82
210.56
174.65
136.38
98.60
62.10
26.11
-10.75
-49.64
-91.10
-134.89
-179.77
-223.36
-262.14
-292.12
-310.02
-314.57
-307.10
-291.14
-271.11
-250.80
-232.42
-216.53
-202.69
-190.35
-179.29
-169.68
-161.61
-154.83
-148.69
-142.34
-135.12
-126.67
-117.07
-106.64
-95.80
-84.95
-74.50
-64.89
-56.53
-49.66
-44.26
-39.98
-36.27
-32.60
-28.69
-24.52
-20.39
-16.87
-14.65
-14.46
-16.73
-21.44
-28.00
-35.49
-43.04
-50.19
-57.00
-63.72
-70.44
-76.84
-82.30
-86.40
-89.48
-92.67
-97.60
-105.67
-117.28
-131.55
-146.43
-159.25
-167.65
-170.56
-168.66
-164.46
-161.68
-164.08
-174.11
-191.81
-214.26
-236.10
-251.11
-254.39
-244.52
-224.55
-201.26
-182.79
-175.49
-181.59
-198.67
-221.09
-242.59
-258.64
-267.36
-268.93
-264.28
-254.01
-238.26
-217.35
-192.51
-166.01
-140.65
-118.62
-100.53
-85.35
-70.71
-53.96
-33.28
-8.35
19.62
48.44
75.94
100.85
123.23
144.36
166.05
189.91
216.94
247.44
281.11
316.93
352.96
386.21
413.04
430.15
435.83
430.74
417.71
400.55
382.53
365.33
349.05
333.08
317.13
301.77
288.09
276.89
268.03
260.44
252.71
244.01
234.59
225.73
219.18
216.27
217.34
221.51
227.15
232.55
236.66
239.50
242.03
245.64
251.59
260.68
273.01
287.87
303.59
317.48
326.19
326.46
316.25
295.43
265.93
230.90
193.46
155.62
117.98
80.29
42.19
3.97
-33.51
-69.39
-103.44
-136.42
-169.99
-206.28
-247.19
-293.55
-344.23
-395.93
-443.65
-482.03
-507.17
-517.97
-516.61
-507.57
-495.97
-485.84
-479.25
-476.23
-475.35
-474.39
-470.81
-462.05
-445.83
-420.64
-386.03
-342.83
-292.75
-237.93
-180.49
-122.32
-64.97
-9.66
42.91
92.78
140.85
188.66
238.22
291.68
351.03
417.26
489.31
563.00
631.06
684.50
715.42
719.88
699.39
660.32
611.17
559.38
509.16
461.33
414.74
368.22
321.73
276.28
232.87
191.65
151.61
111.26
69.44
25.95
-18.55
-63.12
-107.34
-151.37
-195.46
-238.94
-279.59
-313.81
-337.74
-348.86
-347.11
-334.98
-316.47
-295.65
-275.43
-257.12
-240.84
-226.22
-212.88
-200.58
-189.01
-177.67
-165.98
-153.49
-140.25
-126.77
-113.93
-102.52
-92.99
-85.20
-78.56
-72.28
-65.74
-58.70
-51.38
-44.28
-37.97
-32.82
-28.89
-25.92
-23.43
-20.96
-18.19
-15.08
-11.81
-8.65
-5.90
-3.65
-1.85
-0.34
1.03
2.29
3.38
4.17
4.63
4.82
4.90
5.00
5.16
5.28
5.19
4.72
3.83
2.65
1.37
0.22
-0.67
-1.30
-1.76
-2.22
-2.80
-3.52
-4.27
-4.88
-5.19
-5.17
-4.94
-4.69
-4.60
-4.67
-4.78
-4.72
-4.41
-3.90
-3.35
-2.96
-2.82
-2.88
-3.01
-3.10
-3.12
-3.10
-3.10
-3.07
-2.95
-2.66
-2.20
-1.65
-1.15
-0.81
-0.63
-0.50
-0.32
-0.01
0.43
0.93
1.42
1.79
2.01
2.10
2.09
2.02
1.93
1.87
1.88
1.97
2.12
2.33
2.59
2.88
3.16
3.43
3.67
3.91
4.17
4.47
4.81
5.12
5.31
5.32
5.18
4.98
4.85
4.83
4.89
4.89
4.65
4.12
3.30
2.29
1.20
0.07
-1.06
-2.14
-3.07
-3.73
-4.05
-4.05
-3.91
-3.88
-4.22
-5.07
-6.39
-8.01
-9.69
-11.14
-12.13
-12.58
-12.50
-12.07
-11.58
-11.33
-11.50
-12.11
-12.91
-13.59
-13.83
-13.59
-13.10
-12.81
-13.23
-14.67
-17.02
-19.78
-22.16
-23.45
-23.32
-21.97
-20.08
-18.53
-17.98
-18.69
-20.43
-22.73
-25.05
-26.95
-28.06
-27.97
-26.26
-22.74
-17.70
-11.81
-5.79
0.24
6.98
15.66
27.24
41.58
57.19
71.70
82.94
89.82
92.66
92.71
91.30
89.26
86.76
83.76
80.46
77.53
75.89
76.22
78.50
81.54
83.15
80.54
71.48
55.23
33.15
8.41
-15.08
-34.08
-47.06
-54.35
-57.50
-58.17
-57.38
-55.40
-52.14
-47.80
-43.11
-39.09
-36.57
-35.77
-36.26
-37.20
-37.78
-37.49
-36.32
-34.53
-32.51
-30.53
-28.61
-26.62
-24.37
-21.80
-19.03
-16.31
-13.94
-12.08
-10.76
-9.86
-9.19
-8.58
-7.90
-7.11
-6.24
-5.34
-4.52
-3.88
-3.51
-3.42
-3.50
-3.57
-3.47
-3.12
-2.61
-2.09
-1.74
-1.63
-1.72
-1.90
-2.05
-2.12
-2.12
-2.09
-2.04
-1.99
-1.94
-1.91
-1.88
-1.83
-1.69
-1.34
-0.73
0.09
0.92
1.55
1.79
1.60
1.13
0.57
0.10
-0.25
-0.56
-0.96
-1.53
-2.23
-2.94
-3.49
-3.82
-3.96
-4.00
-4.13
-4.47
-5.10
-5.96
-6.97
-7.97
-8.89
-9.70
-10.47
-11.31
-12.33
-13.57
-14.96
-16.39
-17.72
-18.90
-19.99
-21.14
-22.54
-24.35
-26.57
-28.96
-31.05
-32.26
-32.12
-30.46
-27.57
-24.16
-21.14
-19.30
-19.02
-20.05
-21.70
-23.03
-23.40
-22.67
-21.31
-20.22
-20.29
-22.01
-25.29
-29.44
-33.17
-34.72
-32.02
-23.24
-7.52
14.30
39.36
63.43
82.26
93.06
95.44
91.22
83.24
74.01
64.87
56.05
47.43
39.23
32.24
27.34
24.83
24.08
23.78
22.63
20.07
16.48
13.00
10.85
10.71
12.37
14.93
17.21
18.38
18.27
17.48
17.02
17.85
20.37
24.25
28.55
32.10
34.02
34.02
32.60
30.79
29.72
30.16
32.21
35.24
38.18
40.02
40.28
39.14
37.44
36.23
36.45
38.64
42.92
48.72
54.61
58.13
56.21
46.27
27.55
2.02
-25.88
-50.81
-68.66
-78.04
-80.41
-78.83
-76.13
-73.63
-71.14
-67.80
-63.18
-57.77
-52.63
-48.61
-45.83
-43.61
-41.03
-37.39
-32.57
-27.06
-21.58
-16.81
-13.05
-10.18
-7.80
-5.42
-2.76
0.18
3.08
5.58
7.38
8.39
8.69
8.36
7.45
5.93
3.79
1.14
-1.78
-4.60
-6.98
-8.64
-9.38
-9.11
-7.82
-5.65
-2.89
0.01
2.56
4.37
5.32
5.60
5.66
6.05
7.24
9.42
12.38
15.62
18.46
20.31
20.86
20.24
18.96
17.73
17.14
17.43
18.35
19.26
19.41
18.33
16.01
13.01
10.17
8.31
7.87
8.71
10.23
11.55
11.90
10.86
8.45
4.97
0.81
-3.70
-8.39
-13.12
-17.72
-21.89
-25.39
-28.14
-30.31
-32.29
-34.40
-36.77
-39.22
-41.39
-43.05
-44.21
-45.08
-45.84
-46.41
-46.35
-44.97
-41.61
-36.00
-28.43
-19.68
-10.81
-2.84
3.51
8.04
10.90
12.46
13.02
12.69
11.41
9.24
6.53
3.98
2.41
2.43
4.28
7.69
12.21
17.39
22.96
28.87
35.08
41.51
47.76
52.92
55.47
53.52
45.35
30.28
9.24
-15.17
-39.48
-60.61
-77.06
-89.33
-99.44
-109.76
-121.81
-135.56
-149.67
-162.15
-171.23
-175.92
-176.10
-172.24
-165.26
-156.36
-147.12
-139.27
-134.05
-131.19
-128.33
-121.49
-106.92
-83.37
-53.49
-23.39
-0.13
11.40
10.48
0.33
-14.08
-28.90
-42.97
-57.56
-74.69
-95.26
-118.21
-140.82
-159.84
-172.46
-176.84
-172.06
-157.89
-134.68
-103.31
-65.23
-22.36
23.13
69.35
115.05
159.81
203.68
246.68
288.14
326.26
358.20
380.34
388.95
380.92
354.66
310.95
253.51
188.91
125.69
72.93
38.26
26.04
36.32
64.75
103.84
145.10
181.33
208.29
225.04
232.79
232.82
224.79
206.53
175.61
131.85
79.03
24.64
-22.61
-56.11
-73.75
-78.00
-74.06
-66.94
-59.47
-51.86
-43.02
-32.22
-20.20
-8.98
-0.72
3.54
4.47
4.10
4.69
7.64
12.74
18.20
21.44
20.27
13.92
3.43
-8.78
-20.01
-28.41
-33.71
-37.03
-40.00
-43.70
-48.10
-52.20
-54.72
-54.90
-52.93
-49.71
-46.36
-43.58
-41.48
-39.70
-37.72
-35.14
-31.94
-28.42
-25.04
-22.18
-19.98
-18.29
-16.77
-15.09
-13.08
-10.76
-8.34
-6.08
-4.18
-2.78
-1.90
-1.57
-1.77
-2.43
-3.44
-4.63
-5.82
-6.87
-7.72
-8.37
-8.86
-9.23
-9.53
-9.77
-9.98
-10.11
-10.13
-9.92
-9.43
-8.61
-7.54
-6.33
-5.13
-4.09
-3.27
-2.66
-2.22
-1.92
-1.79
-1.86
-2.15
-2.60
-3.07
-3.37
-3.32
-2.90
-2.20
-1.41
-0.73
-0.30
-0.15
-0.21
-0.38
-0.60
-0.79
-0.91
-0.94
-0.84
-0.60
-0.22
0.26
0.81
1.38
1.97
2.59
3.25
3.95
4.68
5.43
6.23
7.11
8.08
9.07
10.00
10.87
11.75
12.81
14.17
15.81
17.52
18.96
19.85
20.13
20.03
19.97
20.39
21.53
23.35
25.49
27.48
28.84
29.42
29.44
29.59
30.84
34.08
39.64
46.87
54.32
60.04
62.52
61.43
57.91
54.27
53.14
56.49
64.81
76.60
88.51
95.82
93.42
77.26
45.72
0.64
-52.85
-107.72
-157.24
-196.98
-225.66
-244.53
-255.96
-261.98
-263.73
-261.57
-255.41
-244.96
-229.71
-209.15
-183.34
-153.48
-121.90
-91.19
-62.77
-36.01
-8.72
21.12
53.40
85.22
111.95
129.58
136.85
135.68
129.93
123.18
117.09
111.13
103.82
94.17
82.68
71.18
61.74
55.58
52.38
50.56
48.11
43.60
36.91
29.09
21.83
16.58
13.89
13.22
13.32
12.88
11.14
8.13
4.52
1.16
-1.36
-2.86
-3.60
-3.97
-4.28
-4.60
-4.82
-4.77
-4.39
-3.77
-3.14
-2.72
-2.65
-2.94
-3.42
-3.85
-3.97
-3.63
-2.81
-1.61
-0.26
1.02
1.99
2.53
2.60
2.30
1.85
1.55
1.64
2.22
3.17
4.21
5.02
5.41
5.41
5.25
5.24
5.58
6.30
7.19
7.96
8.37
8.25
7.54
6.21
4.19
1.42
-2.11
-6.21
-10.45
-14.27
-17.15
-18.82
-19.30
-18.88
-17.89
-16.65
-15.38
-14.30
-13.66
-13.75
-14.80
-16.91
-19.96
-23.67
-27.66
-31.61
-35.27
-38.56
-41.44
-43.93
-46.01
-47.64
-48.70
-49.15
-49.02
-48.52
-47.90
-47.22
-46.15
-43.99
-39.99
-33.80
-25.81
-17.07
-8.99
-2.85
0.56
0.98
-1.43
-6.33
-13.31
-21.99
-32.06
-43.39
-56.08
-70.37
-86.39
-103.78
-121.62
-138.59
-153.51
-165.89
-176.19
-185.78
-196.45
-209.79
-226.36
-245.11
-263.27
-276.82
-281.59
-274.71
-255.62
-226.20
-190.04
-150.98
-111.77
-73.51
-35.87
2.21
41.89
83.92
128.35
174.14
218.91
259.08
290.57
310.12
316.52
311.12
297.29
279.14
260.09
242.13
225.85
211.16
197.88
186.00
175.44
165.68
155.75
144.47
131.13
115.86
99.68
84.25
71.08
60.98
53.80
48.57
44.07
39.44
34.50
29.67
25.60
22.71
21.00
20.07
19.44
18.78
18.07
17.51
17.37
17.86
19.00
20.72
22.90
25.50
28.54
32.12
36.26
40.96
46.09
51.52
57.20
63.22
69.80
77.13
85.21
93.76
102.27
110.25
117.50
124.22
130.95
138.33
146.77
156.43
167.19
178.79
190.74
202.22
212.06
218.83
221.12
217.88
208.51
192.85
170.87
142.53
107.72
66.69
20.66
-27.78
-74.65
-115.34
-145.77
-163.63
-169.02
-164.28
-152.96
-138.54
-123.35
-108.36
-93.65
-79.33
-66.10
-55.14
-47.49
-43.34
-41.70
-40.72
-38.40
-33.31
-24.98
-13.80
-0.73
13.17
27.02
40.33
52.99
65.14
77.09
89.15
101.60
114.50
127.47
139.47
148.61
152.43
148.47
135.08
111.94
80.29
42.42
0.88
-42.31
-86.15
-130.83
-177.42
-227.00
-279.53
-332.96
-383.22
-424.99
-453.27
-464.89
-459.10
-437.10
-400.87
-352.30
-293.33
-226.92
-157.85
-92.59
-37.66
2.57
27.47
40.12
45.68
49.06
53.17
58.62
64.39
69.02
71.73
72.69
72.63
72.28
72.01
71.74
71.18
70.04
68.28
66.19
64.14
62.49
61.24
60.00
58.05
54.72
49.84
44.08
38.83
35.74
35.90
39.32
44.85
50.75
55.51
58.58
60.62
63.07
67.36
74.18
83.07
92.61
101.09
107.23
110.76
112.51
114.21
117.87
125.19
136.78
151.55
166.40
176.60
177.01
163.91
136.73
98.81
56.74
18.22
-10.47
-26.44
-30.80
-27.82
-23.38
-23.23
-31.59
-50.21
-77.93
-110.94
-143.70
-170.54
-187.38
-192.85
-188.36
-177.10
-162.64
-147.83
-134.43
-123.30
-114.81
-109.02
-105.53
-103.38
-101.13
-97.40
-91.44
-83.44
-74.43
-65.85
-58.89
-54.01
-50.86
-48.53
-45.95
-42.40
-37.75
-32.46
-27.38
-23.33
-20.71
-19.41
-18.90
-18.44
-17.48
-15.81
-13.64
-11.41
-9.59
-8.38
-7.74
-7.40
-7.05
-6.51
-5.80
-5.05
-4.42
-3.97
-3.61
-3.21
-2.68
-2.04
-1.41
-0.94
-0.69
-0.63
-0.63
-0.56
-0.36
-0.03
0.37
0.74
1.04
1.22
1.27
1.23
1.12
1.00
0.94
0.99
1.19
1.53
1.95
2.32
2.51
2.41
2.01
1.37
0.68
0.09
-0.29
-0.43
-0.39
-0.25
-0.05
0.19
0.46
0.74
0.96
1.03
0.93
0.66
0.29
-0.10
-0.41
-0.63
-0.75
-0.76
-0.62
-0.27
0.36
1.25
2.25
3.18
3.81
4.02
3.85
3.44
3.01
2.72
2.65
2.79
3.08
3.42
3.73
3.93
3.95
3.77
3.41
2.95
2.50
2.17
2.04
2.17
2.57
3.21
4.04
4.93
5.73
6.30
6.57
6.55
6.35
6.02
5.59
4.98
4.13
3.00
1.67
0.27
-1.07
-2.27
-3.36
-4.36
-5.27
-6.02
-6.49
-6.58
-6.25
-5.59
-4.78
-3.99
-3.34
-2.87
-2.52
-2.22
-1.84
-1.29
-0.51
0.45
1.41
2.10
2.28
1.74
0.48
-1.33
-3.40
-5.41
-7.11
-8.33
-9.00
-9.12
-8.75
-8.02
-7.06
-6.01
-4.94
-3.86
-2.70
-1.44
-0.14
1.01
1.77
1.92
1.37
0.23
-1.24
-2.75
-4.10
-5.21
-6.09
-6.81
-7.35
-7.65
-7.65
-7.33
-6.78
-6.14
-5.59
-5.19
-4.96
-4.82
-4.63
-4.27
-3.60
-2.56
-1.14
0.57
2.42
4.28
6.05
7.69
9.25
10.70
11.99
13.02
13.62
13.70
13.23
12.22
10.78
9.01
7.00
4.83
2.59
0.35
-1.79
-3.69
-5.21
-6.24
-6.78
-6.90
-6.77
-6.54
-6.32
-6.11
-5.85
-5.46
-4.92
-4.29
-3.67
-3.16
-2.83
-2.74
-2.88
-3.27
-3.91
-4.76
-5.82
-7.05
-8.48
-10.13
-12.02
-14.10
-16.23
-18.18
-19.80
-21.06
-22.17
-23.51
-25.46
-28.20
-31.59
-35.24
-38.65
-41.50
-43.84
-46.01
-48.59
-52.07
-56.70
-62.38
-68.71
-75.19
-81.41
-87.23
-92.78
-98.38
-104.32
-110.73
-117.56
-124.79
-132.45
-140.62
-149.23
-157.75
-165.25
-170.82
-174.16
-175.90
-177.40
-180.04
-184.44
-189.81
-194.24
-195.22
-190.49
-178.65
-159.29
-132.71
-99.49
-60.49
-17.07
28.41
72.40
110.60
138.97
154.96
158.31
151.03
136.56
118.47
99.28
80.02
60.58
40.45
19.31
-2.77
-25.39
-48.19
-70.95
-93.69
-116.60
-139.82
-163.06
-185.03
-203.33
-214.82
-216.51
-206.81
-186.32
-157.80
-125.04
-91.57
-59.41
-28.84
1.06
31.53
63.44
97.27
133.21
171.31
211.08
250.96
288.18
319.17
340.76
351.25
351.12
342.68
329.14
313.39
297.46
282.42
268.86
257.21
247.84
240.73
235.16
229.76
222.99
213.90
202.66
190.54
179.49
171.33
166.99
166.29
168.24
171.56
175.38
179.55
184.54
191.11
199.86
211.05
224.32
238.60
251.91
261.54
264.51
258.37
242.08
216.34
183.30
145.67
105.64
64.13
20.93
-24.56
-72.10
-119.84
-164.33
-201.51
-228.03
-242.43
-245.60
-240.27
-229.95
-217.75
-205.62
-194.27
-183.71
-173.81
-164.63
-156.44
-149.41
-143.38
-137.90
-132.50
-127.15
-122.53
-119.96
-120.98
-126.58
-136.67
-149.95
-164.35
-177.78
-188.83
-197.05
-202.79
-206.79
-209.77
-212.29
-214.74
-217.31
-219.97
-222.31
-223.51
-222.45
-217.90
-208.73
-193.96
-172.84
-144.98
-110.54
-70.36
-25.98
20.79
68.50
116.67
166.01
218.06
274.04
333.56
393.65
448.71
491.73
516.25
518.50
498.53
459.77
407.57
347.40
283.87
220.80
161.91
111.24
72.59
48.45
38.77
40.87
50.36
62.81
74.88
84.74
91.46
94.31
92.61
86.25
76.28
65.14
56.05
51.69
53.08
59.27
67.94
76.59
83.94
90.42
97.62
107.02
118.61
130.12
137.57
136.62
124.00
98.52
61.34
15.75
-33.24
-79.19
-115.01
-134.44
-134.12
-115.50
-85.16
-53.33
-30.55
-24.43
-37.74
-68.79
-113.18
-165.81
-221.76
-276.27
-324.43
-361.61
-384.68
-393.40
-390.87
-382.37
-373.43
-367.68
-365.81
-366.07
-365.58
-361.80
-353.67
-341.96
-328.93
-317.66
-311.15
-311.33
-318.26
-329.90
-342.36
-350.96
-351.57
-341.77
-321.44
-292.44
-257.79
-220.52
-182.82
-145.77
-109.48
-73.62
-37.90
-2.34
32.93
67.84
102.56
137.60
173.41
210.33
248.51
288.18
329.68
373.40
419.26
465.98
510.57
548.36
573.84
582.09
570.21
538.21
488.72
426.07
355.03
280.16
205.81
136.34
76.20
29.18
-2.67
-19.97
-25.95
-25.33
-22.59
-20.59
-19.98
-19.95
-19.34
-17.57
-14.95
-12.25
-10.12
-8.69
-7.54
-5.99
-3.44
0.43
5.58
11.74
18.45
25.09
30.95
35.28
37.37
36.73
33.23
27.24
19.51
11.07
2.89
-4.26
-9.86
-13.59
-15.22
-14.51
-11.32
-5.77
1.65
10.05
18.34
25.60
31.32
35.65
39.44
44.03
51.03
61.61
75.67
91.23
104.24
109.32
101.21
76.55
35.40
-18.34
-77.73
-134.67
-182.20
-216.30
-236.52
-245.40
-246.97
-245.00
-241.87
-238.28
-233.95
-228.62
-222.80
-217.78
-214.91
-214.53
-215.39
-214.84
-209.89
-198.42
-179.93
-155.57
-127.16
-96.05
-62.43
-25.33
16.64
64.37
117.93
176.90
240.92
309.60
381.61
453.48
519.01
570.31
600.31
605.35
586.74
550.10
502.91
451.76
400.59
350.71
302.06
254.72
209.43
167.18
128.13
91.02
53.27
11.91
-35.05
-87.48
-142.43
-194.64
-237.98
-267.46
-281.03
-280.25
-269.57
-254.35
-238.79
-224.68
-211.48
-197.61
-181.90
-164.34
-145.89
-127.78
-111.04
-96.55
-85.50
-79.37
-79.42
-85.64
-96.25
-107.82
-116.54
-119.65
-116.42
-108.08
-96.78
-84.46
-72.03
-59.52
-46.65
-33.41
-20.38
-8.40
1.76
9.73
15.50
19.27
21.30
21.77
20.81
18.66
15.74
12.54
9.47
6.63
3.74
0.19
-4.64
-10.98
-18.53
-26.35
-33.20
-37.88
-39.67
-38.48
-34.90
-29.93
-24.64
-19.83
-15.87
-12.67
-9.85
-7.01
-3.91
-0.62
2.60
5.41
7.64
9.39
11.10
13.37
16.79
21.67
27.87
34.74
41.14
45.68
47.15
44.91
39.20
31.09
22.05
13.30
5.27
-2.57
-11.34
-22.05
-34.94
-49.20
-63.19
-75.19
-84.00
-89.35
-91.82
-92.48
-92.41
-92.33
-92.60
-93.21
-94.08
-95.18
-96.65
-98.79
-101.95
-106.43
-112.30
-119.32
-127.01
-134.74
-142.03
-148.75
-155.22
-162.13
-170.19
-179.87
-191.28
-204.23
-218.31
-232.82
-246.59
-257.77
-263.82
-262.12
-250.72
-229.13
-198.60
-161.64
-120.95
-78.42
-34.63
10.49
56.43
101.10
140.71
170.89
188.43
192.75
186.09
172.46
156.03
139.93
126.18
116.51
113.15
119.00
136.90
168.39
212.82
267.10
326.29
384.63
436.84
479.17
510.14
530.31
541.30
544.52
540.12
527.05
504.00
470.89
429.69
384.01
337.68
293.23
251.12
210.33
169.47
127.90
85.92
44.16
2.71
-39.40
-83.76
-131.41
-181.52
-230.83
-274.17
-306.15
-323.16
-324.73
-313.67
-294.79
-273.01
-251.74
-232.37
-214.73
-198.16
-182.40
-167.73
-154.70
-143.59
-134.11
-125.60
-117.40
-109.15
-100.98
-93.36
-86.75
-81.36
-77.02
-73.26
-69.57
-65.60
-61.32
-56.99
-52.99
-49.70
-47.36
-46.02
-45.60
-45.92
-46.72
-47.71
-48.56
-49.04
-49.03
-48.69
-48.39
-48.72
-50.20
-52.97
-56.62
-60.24
-62.82
-63.85
-63.77
-63.79
-65.04
-67.48
-69.05
-65.83
-53.30
-27.86
11.98
65.49
130.08
201.73
275.03
343.06
397.90
432.09
440.92
424.18
386.39
335.11
278.00
220.16
163.15
106.10
48.02
-10.14
-64.87
-111.24
-145.06
-164.75
-171.94
-170.60
-165.22
-159.08
-153.30
-147.51
-140.99
-133.90
-127.48
-123.34
-122.26
-123.49
-124.96
-124.35
-120.31
-113.14
-104.60
-96.99
-92.09
-90.52
-91.77
-94.77
-98.50
-102.35
-106.12
-109.79
-113.34
-116.81
-120.33
-124.21
-128.77
-134.05
-139.82
-145.79
-152.18
-159.75
-169.33
-180.73
-191.64
-197.62
-193.57
-175.95
-144.81
-104.12
-60.45
-20.61
10.30
29.60
36.69
32.66
20.25
4.26
-8.66
-11.48
0.64
28.07
65.92
105.76
138.83
159.21
165.43
159.90
147.13
131.93
118.46
109.91
108.26
113.85
124.97
138.10
149.43
156.95
162.10
169.85
186.71
217.53
262.82
317.84
374.18
423.08
458.51
478.70
485.56
482.48
472.23
455.91
433.34
404.37
369.95
332.21
293.63
255.92
219.34
182.91
145.35
106.14
65.85
25.93
-12.22
-48.14
-82.84
-118.54
-157.69
-201.49
-248.71
-295.41
-335.89
-364.62
-378.38
-377.47
-365.44
-347.52
-328.46
-311.07
-295.93
-282.20
-268.92
-255.91
-243.81
-233.53
-225.50
-219.40
-214.34
-209.42
-204.30
-199.40
-195.75
-194.41
-195.97
-200.17
-205.95
-211.90
-216.91
-220.58
-223.43
-226.56
-231.23
-238.32
-248.15
-260.40
-274.28
-288.67
-302.10
-312.77
-318.70
-318.07
-309.60
-292.97
-268.87
-238.81
-204.74
-168.69
-132.47
-97.55
-64.92
-34.87
-6.90
20.25
48.23
78.46
111.52
146.86
183.20
219.05
253.48
286.58
319.34
353.39
390.76
433.50
483.13
539.60
600.02
658.25
705.68
733.71
736.62
713.79
669.81
612.52
549.94
487.74
428.41
372.12
318.30
266.79
217.92
171.59
126.47
80.12
30.18
-23.89
-79.68
-132.10
-174.89
-203.20
-215.43
-213.82
-203.28
-189.26
-175.61
-163.72
-152.81
-141.34
-128.28
-113.75
-98.80
-84.54
-71.56
-59.59
-47.79
-35.16
-20.97
-4.96
12.83
31.94
51.36
69.35
83.44
91.08
90.84
83.41
71.72
59.98
51.78
48.26
47.49
45.27
37.08
19.99
-6.39
-40.19
-78.33
-117.40
-154.13
-185.45
-208.62
-221.77
-224.58
-218.67
-207.28
-194.28
-182.79
-174.39
-169.03
-165.59
-162.70
-159.40
-155.37
-150.72
-145.72
-140.68
-135.81
-131.32
-127.45
-124.50
-122.86
-122.86
-124.74
-128.47
-133.83
-140.38
-147.68
-155.48
-163.76
-172.80
-182.96
-194.63
-207.93
-222.37
-236.46
-247.57
-252.25
-247.14
-230.11
-201.16
-162.55
-117.91
-70.97
-24.30
21.20
65.94
110.95
157.24
205.60
256.58
310.24
365.58
420.10
469.90
510.82
539.91
556.65
563.06
562.47
557.68
549.55
536.85
517.30
489.26
452.84
410.02
363.78
316.79
270.65
225.70
181.59
137.91
94.56
51.56
8.62
-35.12
-80.60
-127.91
-175.37
-219.37
-255.26
-279.02
-288.91
-286.21
-274.58
-258.50
-241.62
-225.89
-211.77
-199.10
-187.85
-178.27
-170.54
-164.23
-158.23
-151.23
-142.45
-132.08
-121.12
-110.86
-102.06
-94.56
-87.29
-78.82
-67.92
-54.05
-37.44
-19.11
-0.56
16.42
30.19
39.48
43.71
42.94
37.75
28.99
17.53
4.33
-9.49
-22.51
-33.21
-40.33
-43.22
-42.16
-38.15
-32.53
-26.43
-20.46
-14.73
-9.13
-3.58
1.69
6.21
9.31
10.29
8.55
3.85
-3.45
-12.34
-21.26
-28.60
-33.24
-34.98
-34.54
-33.20
-32.11
-31.80
-31.98
-31.69
-29.87
-25.78
-19.38
-11.28
-2.57
5.55
12.06
16.33
18.21
17.84
15.55
11.74
6.88
1.48
-3.85
-8.41
-11.65
-13.21
-13.17
-11.93
-10.12
-8.32
-6.90
-5.85
-4.92
-3.76
-2.23
-0.42
1.30
2.56
3.19
3.32
3.26
3.25
3.23
2.84
1.66
-0.44
-3.13
-5.71
-7.47
-8.07
-7.70
-6.96
-6.47
-6.60
-7.28
-8.05
-8.38
-7.91
-6.59
-4.67
-2.62
-0.92
0.13
0.41
0.07
-0.61
-1.39
-2.14
-2.88
-3.60
-4.24
-4.52
-4.10
-2.65
-0.02
3.75
8.36
13.42
18.48
23.15
27.18
30.48
33.10
35.08
36.34
36.68
35.91
34.07
31.39
28.07
24.00
18.59
11.11
1.27
-10.25
-21.71
-30.97
-36.42
-37.65
-35.60
-31.89
-27.93
-24.36
-21.01
-17.29
-12.69
-7.08
-0.62
6.33
13.31
19.76
25.03
28.60
30.23
30.22
29.33
28.56
28.79
30.47
33.54
37.23
40.21
40.79
37.48
29.60
17.85
4.26
-8.43
-17.83
-22.81
-23.92
-22.94
-21.99
-22.60
-25.19
-29.29
-34.03
-38.67
-42.75
-45.97
-47.92
-48.01
-45.69
-40.75
-33.58
-25.23
-17.11
-10.62
-6.74
-5.80
-7.32
-10.14
-12.69
-13.54
-11.88
-7.96
-3.10
0.78
1.90
-0.69
-6.80
-15.34
-24.92
-34.43
-43.41
-51.90
-60.18
-68.40
-76.42
-83.95
-90.74
-96.81
-102.51
-108.36
-114.79
-121.93
-129.52
-137.18
-144.84
-153.11
-163.19
-176.42
-193.52
-214.02
-236.26
-258.06
-277.60
-293.93
-306.93
-316.57
-322.28
-322.71
-316.21
-301.67
-279.22
-250.36
-217.34
-182.46
-147.40
-113.09
-79.94
-48.08
-17.58
11.70
40.25
69.15
99.92
134.09
172.29
213.45
254.27
289.78
314.67
325.28
321.05
304.84
281.73
257.07
234.50
215.23
198.60
183.35
168.85
155.33
143.31
132.89
123.50
114.35
105.19
96.76
90.59
88.47
91.68
100.45
113.83
129.98
146.60
161.40
172.71
179.85
183.40
184.96
186.59
189.86
195.11
201.16
205.93
207.50
205.21
200.12
194.56
191.01
190.92
193.95
198.20
201.07
200.41
195.25
185.97
174.00
161.30
150.06
142.27
139.34
141.69
148.47
157.78
167.46
176.03
183.18
189.76
196.96
205.48
214.91
223.84
230.40
233.01
230.90
224.17
213.47
199.53
182.86
163.71
142.27
119.10
95.26
72.17
51.13
32.55
15.58
-1.79
-22.00
-46.88
-76.77
-110.24
-144.84
-178.01
-208.28
-235.86
-262.51
-290.81
-323.27
-361.77
-406.81
-457.08
-509.17
-557.75
-596.62
-620.67
-628.01
-621.14
-606.49
-592.00
-583.89
-584.04
-589.40
-593.71
-590.47
-575.74
-549.35
-514.12
-473.93
-431.84
-389.14
-345.80
-301.54
-256.89
-213.51
-173.46
-138.00
-106.78
-77.78
-48.19
-15.62
20.80
60.38
101.50
142.51
182.21
219.62
253.49
282.22
304.40
319.80
329.88
337.29
344.47
352.22
359.14
362.49
359.77
350.11
334.55
315.16
293.66
270.63
245.70
218.37
188.95
158.65
129.20
102.05
77.91
56.71
37.99
21.26
6.27
-7.06
-18.65
-28.40
-36.22
-42.09
-46.02
-48.16
-48.72
-48.03
-46.35
-43.77
-40.17
-35.34
-29.24
-22.19
-14.84
-7.95
-1.98
3.10
7.89
13.25
19.92
28.12
37.43
46.86
55.16
61.15
64.02
63.40
59.34
52.08
42.01
29.67
15.98
2.37
-9.47
-18.10
-23.07
-25.26
-26.59
-29.13
-34.03
-40.89
-47.91
-52.82
-53.89
-50.73
-44.32
-36.52
-29.26
-23.88
-20.78
-19.43
-18.72
-17.48
-15.02
-11.55
-8.05
-5.96
-6.67
-11.08
-19.27
-30.26
-41.87
-50.81
-53.35
-46.38
-28.71
-1.79
30.52
63.29
92.22
114.92
131.25
142.68
151.25
158.74
166.40
174.97
184.76
195.51
206.36
216.09
223.65
228.75
232.22
235.63
240.71
248.57
259.53
273.24
288.92
305.56
321.92
336.54
347.84
354.43
355.48
350.84
340.98
326.66
308.72
288.03
265.45
241.95
218.42
195.52
173.57
152.55
132.34
112.91
94.38
76.78
59.83
42.84
24.86
5.06
-16.95
-40.95
-66.13
-91.55
-116.40
-140.37
-163.74
-187.26
-211.94
-238.80
-268.57
-301.27
-335.89
-370.14
-400.69
-423.81
-436.55
-437.72
-428.45
-411.85
-391.90
-372.15
-354.77
-340.31
-328.31
-318.13
-309.62
-303.17
-299.31
-298.12
-298.86
-300.22
-300.85
-300.12
-298.50
-297.48
-298.85
-303.99
-313.33
-326.31
-341.75
-358.20
-374.13
-387.77
-397.06
-399.86
-394.46
-380.23
-357.97
-329.65
-297.80
-264.70
-231.90
-200.29
-170.35
-142.32
-116.24
-91.66
-67.56
-42.58
-15.57
13.82
44.89
76.22
106.21
133.91
159.37
183.58
208.09
234.49
264.19
297.93
335.39
374.63
411.87
442.13
460.49
463.78
451.72
426.88
393.52
355.94
317.09
278.16
239.04
199.24
158.72
118.04
78.22
40.16
4.17
-30.20
-63.99
-98.26
-133.50
-169.10
-203.60
-235.38
-263.60
-288.59
-311.39
-332.58
-351.18
-364.51
-369.17
-362.81
-345.45
-319.71
-289.62
-258.91
-229.48
-201.07
-172.08
-140.91
-107.08
-71.52
-35.98
-1.98
29.96
60.57
91.48
124.59
161.57
203.22
249.01
296.61
341.94
379.78
405.33
416.12
413.29
401.53
387.33
376.44
371.57
371.83
373.77
373.61
369.21
360.90
350.85
341.84
336.07
334.69
337.61
343.50
349.75
352.62
347.87
331.96
303.54
264.56
220.19
177.48
143.09
121.04
111.60
111.57
115.85
119.20
117.57
108.63
91.79
68.11
40.10
11.47
-13.73
-32.37
-43.58
-49.43
-54.46
-64.00
-82.21
-110.89
-149.44
-195.86
-247.83
-302.95
-358.23
-409.53
-451.89
-480.81
-494.16
-493.18
-482.13
-466.34
-449.93
-434.30
-418.23
-399.35
-376.16
-349.40
-322.13
-298.47
-281.74
-272.76
-269.34
-266.93
-260.22
-245.08
-220.10
-186.59
-147.72
-106.64
-64.98
-22.39
22.58
70.73
120.85
169.58
212.65
246.72
270.89
286.76
297.21
304.73
310.06
312.21
309.41
300.73
287.01
270.89
255.72
244.22
237.44
234.56
233.49
231.89
228.09
221.68
213.62
205.92
200.84
200.38
205.40
215.22
227.22
237.14
239.67
229.70
203.88
162.29
109.37
53.48
4.83
-27.68
-39.53
-31.89
-10.53
16.82
43.30
64.51
78.28
83.60
79.92
67.43
47.75
24.12
0.33
-20.98
-39.60
-57.32
-76.09
-95.96
-114.31
-127.11
-131.06
-125.40
-112.07
-94.34
-75.03
-55.56
-36.52
-18.79
-4.16
5.15
7.62
3.53
-5.38
-17.35
-32.20
-52.03
-80.11
-118.49
-165.60
-215.72
-260.61
-292.79
-308.51
-308.85
-298.67
-283.88
-269.01
-256.11
-245.12
-235.08
-225.28
-215.72
-206.65
-197.83
-187.87
-174.47
-155.20
-128.72
-95.82
-59.87
-26.17
-0.33
13.62
14.78
5.64
-9.03
-24.26
-36.89
-46.51
-54.78
-63.87
-74.78
-86.54
-96.84
-103.28
-104.70
-101.46
-94.75
-85.24
-72.21
-53.72
-27.60
7.19
49.76
97.69
148.32
199.97
252.37
305.93
360.30
413.39
461.59
501.16
529.97
548.29
558.15
561.70
559.55
550.47
532.31
503.77
465.69
421.02
373.71
327.09
282.92
241.39
201.86
163.65
126.30
89.45
52.44
14.06
-26.96
-71.05
-116.89
-161.14
-198.98
-225.67
-238.40
-237.48
-226.39
-210.36
-194.36
-181.38
-172.03
-165.47
-160.95
-158.83
-160.37
-166.34
-175.52
-184.05
-186.63
-178.56
-158.30
-128.76
-96.92
-71.71
-61.47
-71.74
-103.89
-154.85
-217.28
-280.72
-333.36
-364.75
-368.60
-344.96
-300.27
-245.34
-191.82
-148.59
-119.90
-105.57
-102.86
-108.56
-120.40
-137.09
-157.32
-178.90
-198.37
-211.43
-214.03
-203.46
-179.63
-145.23
-105.42
-66.44
-34.07
-11.97
-1.23
-0.86
-9.09
-24.70
-47.15
-75.62
-107.55
-137.96
-160.42
-169.37
-162.49
-141.85
-112.86
-81.59
-52.06
-24.81
2.62
33.87
71.58
115.73
163.43
209.64
248.76
276.21
289.83
290.28
280.69
265.34
248.05
231.12
215.16
199.83
184.85
170.55
157.76
147.14
138.59
131.14
123.46
114.56
104.33
93.45
83.15
74.46
67.80
62.84
58.70
54.44
49.46
43.73
37.75
32.21
27.71
24.44
22.19
20.43
18.63
16.45
13.88
11.15
8.63
6.60
5.18
4.30
3.73
3.24
2.68
1.99
1.24
0.57
0.07
-0.20
-0.28
-0.22
-0.12
-0.03
0.02
0.03
0.01
-0.00
-0.01
-0.01
-0.00
0.00
0.00
0.00
0.00
0.00
0.00
0.00
0.00
0.00
0.00
0.00
0.00
0.00
0.00
0.00
0.00
0.00
0.00
0.00
0.00
0.00
0.00
0.00
0.00
0.00
0.00
0.00
0.00
0.00
0.00
0.00
0.00
0.00
0.00
0.00
0.00
0.00
0.00
0.00
0.00
0.00
0.00
0.00
0.00
0.00
0.00
0.00
0.00
0.00
0.00
0.00
0.00
0.00
0.00
0.00
0.00
0.00
0.00
0.00
0.00
0.00
0.00
0.00
0.00
0.00
0.00
0.00
0.00
0.00
0.00
0.00
0.00
0.00
0.00
0.00
0.00
0.00
0.00
0.00
0.00
0.00
0.00
0.00
0.00
0.00
0.00
0.00
0.00
0.00
0.00
0.00
0.00
0.00
0.00
0.00
0.00
0.00
0.00
0.00
0.00
0.00
0.00
0.00
0.00
0.00
0.00
0.00
0.00
0.00
0.00
0.00
0.00
0.00
0.00
0.00
0.00
0.00
0.00
0.00
0.00
0.00
0.00
0.00
0.00
0.00
0.00
0.00
0.00
0.01
0.01
0.01
0.01
-0.00
-0.02
-0.05
-0.07
-0.10
-0.11
-0.12
-0.12
-0.12
-0.12
-0.13
-0.15
-0.17
-0.19
-0.19
-0.19
-0.19
-0.19
-0.20
-0.24
-0.29
-0.35
-0.40
-0.43
-0.44
-0.44
-0.45
-0.51
-0.63
-0.80
-1.01
-1.19
-1.33
-1.40
-1.44
-1.49
-1.62
-1.87
-2.22
-2.64
-3.03
-3.32
-3.48
-3.57
-3.66
-3.87
-4.28
-4.88
-5.61
-6.34
-6.92
-7.28
-7.44
-7.50
-7.66
-8.12
-9.04
-10.43
-12.09
-13.60
-14.45
-14.20
-12.64
-9.94
-6.58
-3.23
-0.53
1.06
1.35
0.42
-1.53
-4.22
-7.40
-10.86
-14.42
-17.92
-21.23
-24.26
-27.01
-29.58
-32.15
-34.88
-37.86
-41.00
-44.13
-47.01
-49.50
-51.55
-53.14
-54.19
-54.52
-53.93
-52.31
-49.74
-46.41
-42.58
-38.53
-34.57
-31.00
-28.16
-26.19
-24.92
-23.79
-22.03
-18.89
-13.96
-7.37
0.26
7.99
14.87
20.17
23.57
25.12
25.15
23.99
21.73
18.00
12.13
3.52
-7.68
-20.01
-30.67
-36.01
-32.83
-19.66
2.43
30.07
58.75
84.47
104.98
120.12
131.05
139.02
144.48
146.98
145.85
141.09
133.83
126.09
119.95
116.84
117.22
120.61
125.71
130.33
131.37
125.32
109.43
83.07
48.73
11.55
-22.32
-48.03
-63.65
-70.38
-71.31
-69.59
-67.15
-64.57
-61.78
-58.98
-56.91
-56.48
-58.03
-61.02
-64.20
-66.33
-66.75
-65.67
-63.98
-62.72
-62.56
-63.58
-65.38
-67.47
-69.56
-71.85
-74.82
-78.93
-84.19
-90.11
-95.75
-100.21
-103.12
-104.91
-106.68
-109.87
-115.58
-123.94
-133.60
-141.70
-144.14
-136.54
-115.63
-80.72
-34.57
16.79
65.66
105.09
131.10
143.68
146.12
143.11
138.55
134.35
130.55
126.42
121.70
117.10
113.84
112.70
113.38
114.48
114.33
111.97
107.72
103.02
99.77
99.24
101.47
105.32
108.99
110.95
110.68
108.89
107.18
107.28
110.26
116.06
123.26
129.48
131.87
127.77
115.25
93.61
63.72
28.12
-9.33
-44.21
-72.61
-92.12
-102.36
-104.83
-102.11
-96.90
-91.20
-86.13
-82.09
-79.18
-77.47
-76.99
-77.53
-78.53
-79.12
-78.58
-76.59
-73.44
-69.87
-66.68
-64.35
-62.84
-61.67
-60.20
-57.98
-54.93
-51.31
-47.61
-44.26
-41.49
-39.25
-37.30
-35.32
-33.07
-30.45
-27.53
-24.49
-21.54
-18.84
-16.44
-14.21
-11.94
-9.36
-6.31
-2.81
0.87
4.29
7.00
8.74
9.55
9.68
9.52
9.33
9.13
8.73
7.87
6.44
4.59
2.67
1.07
-0.04
-0.79
-1.56
-2.80
-4.74
-7.28
-10.06
-12.65
-14.75
-16.21
-16.98
-16.94
-15.91
-13.80
-10.83
-7.53
-4.47
-1.82
0.88
4.53
9.91
17.05
24.99
32.17
37.14
39.26
38.90
37.09
34.89
32.92
31.26
29.77
28.44
27.52
27.33
28.02
29.35
30.80
31.77
31.84
30.95
29.39
27.71
26.60
26.62
27.83
29.54
30.23
27.89
20.89
8.72
-7.61
-25.90
-43.68
-59.22
-72.13
-83.09
-93.11
-102.74
-111.67
-119.14
-124.56
-128.06
-130.57
-133.34
-137.39
-143.02
-149.88
-157.23
-164.41
-171.05
-177.18
-183.11
-189.15
-195.18
-200.35
-202.83
-200.10
-189.60
-169.52
-139.34
-99.87
-52.94
-0.99
53.06
105.67
152.78
190.31
215.18
226.41
225.60
216.45
203.39
190.08
178.44
168.67
159.96
151.29
142.02
131.98
121.35
110.44
99.65
89.39
80.04
71.82
64.85
59.06
54.27
50.25
46.73
43.39
39.94
36.16
32.06
27.88
24.02
20.86
18.59
17.13
16.18
15.33
14.29
12.97
11.48
10.09
9.11
8.73
9.02
9.88
11.05
12.23
13.17
13.81
14.26
14.79
15.70
17.14
19.05
21.19
23.32
25.32
27.32
29.60
32.49
36.16
40.56
45.35
50.05
54.22
57.72
60.83
64.23
68.69
74.66
81.83
89.07
94.63
96.71
94.08
86.56
75.10
61.54
47.99
36.27
27.51
22.03
19.48
19.23
20.68
23.65
28.39
35.66
46.35
60.95
78.73
97.20
112.05
117.87
109.86
85.66
46.84
-1.10
-50.16
-92.42
-122.38
-138.39
-142.47
-138.82
-132.04
-125.62
-121.29
-119.19
-118.42
-117.62
-115.49
-111.07
-103.92
-94.11
-82.24
-69.29
-56.45
-44.90
-35.71
-29.64
-26.95
-27.25
-29.49
-32.20
-33.95
-33.86
-31.88
-28.79
-25.76
-23.83
-23.43
-24.31
-25.74
-26.90
-27.28
-26.88
-26.06
-25.34
-25.08
-25.28
-25.65
-25.71
-25.06
-23.53
-21.24
-18.48
-15.55
-12.59
-9.54
-6.20
-2.41
1.83
6.31
10.66
14.50
17.53
19.66
20.94
21.56
21.73
21.64
21.38
20.97
20.45
19.86
19.38
19.23
19.62
20.67
22.35
24.46
26.69
28.67
30.04
30.59
30.27
29.20
27.66
25.84
23.84
21.55
18.76
15.27
11.12
6.64
2.36
-1.16
-3.52
-4.63
-4.66
-3.86
-2.48
-0.63
1.71
4.53
7.65
10.64
12.83
13.46
11.81
7.42
0.32
-8.89
-19.07
-28.80
-36.71
-41.89
-44.14
-43.97
-42.30
-40.09
-38.02
-36.34
-34.97
-33.74
-32.58
-31.57
-30.85
-30.45
-30.15
-29.56
-28.31
-26.38
-24.25
-22.85
-23.19
-25.93
-31.10
-38.03
-45.45
-51.84
-55.72
-55.99
-52.21
-44.76
-34.90
-24.49
-15.56
-9.77
-7.78
-9.06
-12.00
-14.31
-13.87
-9.28
-0.33
11.95
25.67
38.71
49.33
56.63
60.51
61.44
60.13
57.20
53.19
48.59
43.89
39.60
36.14
33.75
32.48
32.21
32.67
33.47
34.17
34.24
33.22
30.80
26.94
21.85
15.91
9.58
3.19
-3.00
-8.82
-14.06
-18.45
-21.62
-23.34
-23.55
-22.49
-20.61
-18.43
-16.35
-14.52
-12.93
-11.44
-9.96
-8.48
-7.09
-5.85
-4.72
-3.48
-1.86
0.30
2.98
5.89
8.62
10.84
12.42
13.52
14.37
15.10
15.55
15.29
13.88
11.07
7.03
2.31
-2.40
-6.54
-9.80
-12.13
-13.61
-14.32
-14.33
-13.69
-12.60
-11.30
-10.07
-9.11
-8.46
-8.02
-7.64
-7.17
-6.55
-5.77
-4.88
-3.94
-3.02
-2.14
-1.32
-0.59
-0.05
0.18
-0.03
-0.76
-2.02
-3.71
-5.65
-7.67
-9.58
-11.22
-12.42
-13.08
-13.16
-12.71
-11.89
-10.89
-9.87
-8.89
-7.94
-7.00
-6.03
-5.04
-4.05
-3.13
-2.34
-1.79
-1.51
-1.45
-1.50
-1.47
-1.24
-0.74
-0.04
0.75
1.53
2.25
2.85
3.25
3.36
3.12
2.54
1.75
0.94
0.23
-0.32
-0.77
-1.20
-1.65
-2.12
-2.54
-2.92
-3.28
-3.68
-4.14
-4.60
-4.99
-5.26
-5.46
-5.69
-6.06
-6.62
-7.30
-8.01
-8.60
-8.95
-8.94
-8.47
-7.47
-6.00
-4.20
-2.35
-0.71
0.56
1.47
2.18
2.87
3.64
4.49
5.34
6.16
6.96
7.82
8.77
9.73
10.53
10.94
10.78
9.95
8.51
6.68
4.73
2.94
1.53
0.57
-0.02
-0.43
-0.87
-1.51
-2.34
-3.25
-4.03
-4.50
-4.60
-4.36
-3.93
-3.50
-3.23
-3.16
-3.28
-3.48
-3.64
-3.66
-3.45
-2.95
-2.09
-0.82
0.88
2.97
5.35
7.79
9.99
11.66
12.59
12.69
12.05
10.89
9.50
8.16
7.09
6.35
5.91
5.64
5.39
5.04
4.55
3.96
3.38
2.92
2.63
2.45
2.26
1.92
1.35
0.57
-0.27
-1.03
-1.60
-1.98
-2.25
-2.55
-2.91
-3.34
-3.74
-4.02
-4.11
-3.97
-3.62
-3.06
-2.32
-1.45
-0.56
0.22
0.76
1.01
1.03
0.95
0.89
0.92
1.04
1.17
1.26
1.32
1.40
1.56
1.76
1.93
1.97
1.84
1.58
1.35
1.27
1.35
1.47
1.44
1.13
0.54
-0.17
-0.77
-1.12
-1.19
-1.09
-0.94
-0.86
-0.86
-0.94
-1.09
-1.35
-1.73
-2.23
-2.76
-3.20
-3.41
-3.30
-2.83
-2.09
-1.25
-0.52
-0.08
-0.04
-0.39
-0.99
-1.67
-2.30
-2.78
-3.09
-3.23
-3.18
-2.93
-2.46
-1.81
-1.08
-0.42
0.04
0.25
0.23
0.06
-0.17
-0.40
-0.61
-0.85
-1.14
-1.49
-1.86
-2.18
-2.39
-2.44
-2.32
-2.02
-1.61
-1.18
-0.82
-0.65
-0.73
-1.00
-1.34
-1.56
-1.54
-1.27
-0.83
-0.36
0.04
0.41
0.86
1.49
2.35
3.37
4.39
5.24
5.85
6.24
6.48
6.60
6.60
6.37
5.79
4.81
3.51
2.15
1.03
0.42
0.41
0.88
1.56
2.18
2.57
2.77
2.95
3.27
3.73
4.18
4.36
4.08
3.30
2.14
0.79
-0.56
-1.83
-3.03
-4.15
-5.15
-5.94
-6.40
-6.45
-6.12
-5.54
-4.85
-4.23
-3.76
-3.45
-3.28
-3.16
-3.07
-2.98
-2.89
-2.78
-2.62
-2.38
-2.02
-1.58
-1.12
-0.75
-0.52
-0.46
-0.54
-0.69
-0.83
-0.88
-0.83
-0.69
-0.51
-0.42
-0.51
-0.90
-1.59
-2.50
-3.46
-4.29
-4.87
-5.18
-5.31
-5.37
-5.44
-5.50
-5.45
-5.17
-4.63
-3.90
-3.12
-2.39
-1.69
-0.93
0.03
1.24
2.60
3.87
4.82
5.25
5.13
4.58
3.78
2.92
2.16
1.58
1.22
1.06
1.03
1.05
1.06
1.06
1.12
1.33
1.74
2.29
2.85
3.21
3.25
2.92
2.26
1.38
0.39
-0.65
-1.75
-2.93
-4.20
-5.55
-6.94
-8.27
-9.43
-10.28
-10.75
-10.82
-10.62
-10.34
-10.20
-10.44
-11.19
-12.53
-14.37
-16.33
-17.77
-17.92
-16.16
-12.36
-7.08
-1.40
3.47
6.63
7.84
7.48
6.32
5.11
4.43
4.60
5.81
8.12
11.42
15.30
19.06
21.86
23.06
22.44
20.29
17.27
14.08
11.19
8.73
6.53
4.32
1.92
-0.72
-3.59
-6.60
-9.65
-12.59
-15.20
-17.24
-18.54
-19.10
-19.19
-19.19
-19.49
-20.34
-21.76
-23.52
-25.28
-26.68
-27.43
-27.29
-26.09
-23.69
-20.00
-14.98
-8.67
-1.26
6.95
15.51
23.92
31.73
38.64
44.61
49.79
54.43
58.78
62.92
66.72
69.94
72.41
74.16
75.60
77.36
80.06
84.01
89.07
94.64
99.90
104.10
106.84
108.16
108.38
107.95
107.15
106.04
104.46
102.14
98.78
94.15
88.10
80.75
72.55
64.35
57.07
51.14
45.74
38.48
25.70
3.81
-29.13
-72.02
-120.60
-168.65
-209.98
-240.46
-258.84
-266.50
-266.19
-260.89
-252.97
-244.16
-235.76
-228.83
-224.14
-222.00
-222.27
-224.46
-228.13
-233.16
-239.77
-248.23
-258.53
-269.79
-279.93
-285.86
-284.25
-272.85
-251.85
-224.38
-195.85
-172.04
-156.89
-150.89
-150.97
-151.94
-148.69
-137.91
-118.96
-93.24
-63.02
-30.27
4.01
39.83
77.73
118.02
160.04
201.76
240.05
271.53
293.75
306.05
309.69
307.20
301.11
292.97
282.78
269.70
253.12
233.79
214.22
198.14
189.08
188.67
195.60
205.70
213.33
213.25
202.04
178.74
144.38
101.46
53.88
7.27
-31.13
-53.71
-54.98
-34.24
3.40
48.37
90.17
121.25
139.42
147.40
150.31
152.47
155.11
156.35
152.39
139.41
115.12
79.48
34.54
-16.40
-69.76
-122.69
-173.45
-221.24
-265.18
-303.46
-332.88
-349.53
-350.19
-333.69
-301.42
-256.69
-203.29
-144.46
-82.61
-20.26
39.11
90.90
130.58
155.52
166.31
166.68
162.05
157.48
155.91
157.81
161.93
166.68
171.07
175.08
179.22
183.97
189.33
194.88
200.06
204.67
209.28
215.02
223.10
234.14
247.52
261.25
272.30
277.30
273.35
258.78
233.56
199.57
160.36
120.59
85.08
57.90
41.58
36.67
41.66
53.25
66.87
77.41
80.25
72.12
51.75
20.03
-20.61
-66.74
-114.53
-159.90
-198.69
-227.00
-242.12
-243.76
-234.79
-220.67
-207.59
-200.05
-199.12
-202.41
-205.72
-205.40
-200.10
-191.07
-180.88
-171.70
-164.10
-157.09
-149.17
-139.55
-128.76
-118.32
-109.70
-103.39
-98.59
-93.70
-87.28
-78.79
-68.86
-58.96
-50.64
-44.79
-41.33
-39.30
-37.45
-34.80
-31.10
-26.84
-22.95
-20.26
-19.14
-19.35
-20.18
-20.80
-20.64
-19.55
-17.82
-15.94
-14.40
-13.48
-13.18
-13.37
-13.83
-14.37
-14.87
-15.23
-15.32
-15.00
-14.20
-12.86
-11.02
-8.70
-5.86
-2.30
2.27
8.15
15.45
23.95
33.11
42.10
50.06
56.31
60.54
62.84
63.62
63.41
62.70
61.83
60.98
60.27
59.77
59.54
59.46
59.17
58.04
55.28
50.22
42.60
32.82
21.92
11.34
2.51
-3.55
-6.38
-6.08
-3.11
1.76
7.47
12.66
15.65
14.84
9.25
-0.96
-14.29
-28.27
-40.25
-48.31
-51.83
-51.50
-48.73
-45.00
-41.26
-37.87
-34.74
-31.74
-28.91
-26.46
-24.61
-23.39
-22.54
-21.62
-20.22
-18.16
-15.50
-12.54
-9.63
-6.99
-4.69
-2.66
-0.79
1.01
2.78
4.57
6.49
8.73
11.40
14.54
17.95
21.31
24.30
26.79
28.93
31.08
33.62
36.77
40.40
44.17
47.61
50.39
52.27
53.09
52.64
50.70
47.27
42.73
37.73
32.81
27.80
21.68
12.92
0.45
-15.47
-32.94
-49.07
-61.10
-67.60
-68.86
-66.42
-62.13
-57.26
-52.21
-46.83
-41.02
-35.05
-29.61
-25.39
-22.76
-21.59
-21.24
-20.94
-20.04
-18.28
-15.87
-13.30
-11.08
-9.53
-8.57
-7.84
-6.92
-5.50
-3.58
-1.34
0.91
3.02
5.01
7.09
9.51
12.44
15.86
19.56
23.16
26.32
28.87
30.91
32.82
35.18
38.51
43.11
48.88
55.33
61.81
67.82
73.29
78.69
84.84
92.54
102.15
113.38
125.40
137.14
147.73
156.79
164.52
171.61
179.16
188.61
201.35
218.09
237.97
258.05
273.67
279.76
272.73
251.90
219.77
180.94
140.16
100.66
63.47
27.85
-7.70
-44.52
-83.41
-124.47
-167.04
-209.46
-248.87
-281.69
-304.55
-315.57
-314.99
-305.17
-289.56
-271.46
-253.14
-235.66
-219.28
-204.13
-190.48
-178.67
-168.77
-160.39
-152.67
-144.72
-136.01
-126.68
-117.50
-109.52
-103.61
-100.04
-98.33
-97.35
-95.75
-92.51
-87.35
-81.01
-75.21
-71.94
-72.73
-77.49
-83.98
-88.04
-84.54
-68.76
-37.49
10.12
71.97
142.76
214.25
276.28
318.94
335.14
322.46
283.72
225.61
156.52
84.43
15.83
-44.34
-92.54
-126.62
-146.45
-154.30
-154.43
-151.82
-150.44
-152.21
-157.02
-163.68
-170.79
-177.62
-184.05
-190.30
-196.67
-203.39
-210.66
-218.76
-227.98
-238.69
-251.20
-265.65
-281.84
-298.90
-315.12
-328.04
-334.87
-333.34
-322.35
-302.34
-275.10
-242.97
-208.16
-172.22
-136.06
-100.19
-65.10
-31.23
1.16
32.32
63.10
94.88
129.31
167.65
210.02
254.78
298.30
335.68
362.14
374.71
373.32
360.72
341.32
319.37
297.63
277.04
257.38
238.30
220.03
203.26
188.53
175.71
163.94
152.07
139.37
125.93
112.50
100.20
89.88
81.76
75.49
70.31
65.40
60.13
54.22
47.74
41.10
34.86
29.63
25.82
23.54
22.49
22.18
22.07
21.83
21.43
21.11
21.19
21.92
23.35
25.37
27.65
29.73
30.98
30.67
28.17
23.16
15.92
7.31
-1.39
-8.86
-14.19
-17.06
-17.76
-16.89
-15.12
-12.98
-10.83
-8.93
-7.54
-6.94
-7.35
-8.82
-11.25
-14.35
-17.81
-21.41
-25.05
-28.80
-32.70
-36.64
-40.33
-43.35
-45.28
-45.94
-45.49
-44.40
-43.28
-42.63
-42.68
-43.22
-43.78
-43.77
-42.80
-40.76
-37.93
-34.81
-32.01
-30.11
-29.44
-30.00
-31.30
-32.34
-31.75
-28.27
-21.21
-10.92
1.31
13.67
24.58
33.23
39.69
44.54
48.26
50.87
51.92
50.85
47.43
41.91
34.96
27.34
19.68
12.38
5.68
-0.28
-5.37
-9.56
-12.89
-15.39
-17.04
-17.70
-17.25
-15.74
-13.51
-11.24
-9.57
-8.83
-8.77
-8.66
-7.77
-5.98
-4.14
-4.00
-7.43
-15.47
-27.59
-41.68
-54.87
-64.66
-69.99
-71.55
-71.22
-71.22
-73.21
-77.95
-85.23
-93.91
-101.74
-105.30
-100.37
-83.28
-52.69
-10.90
36.12
80.55
115.47
137.28
146.43
146.24
140.57
131.92
120.84
106.89
90.17
72.16
55.50
42.76
35.14
32.04
31.51
31.42
30.47
28.51
26.33
24.83
24.41
24.75
25.04
24.51
22.84
20.36
17.84
16.06
15.43
15.80
16.56
17.06
16.90
16.08
15.02
14.33
14.60
16.28
19.52
24.19
29.78
35.56
40.64
44.24
45.83
45.27
42.75
38.65
33.40
27.45
21.22
15.19
9.79
5.35
1.95
-0.57
-2.50
-4.04
-5.18
-5.76
-5.59
-4.78
-3.88
-3.76
-5.27
-8.80
-13.97
-19.71
-24.68
-27.80
-28.69
-27.69
-25.60
-23.16
-20.77
-18.39
-15.84
-13.02
-10.19
-7.90
-6.71
-6.88
-8.24
-10.26
-12.27
-13.77
-14.55
-14.68
-14.37
-13.74
-12.79
-11.41
-9.53
-7.25
-4.98
-3.30
-2.79
-3.75
-6.08
-9.24
-12.46
-15.04
-16.56
-16.94
-16.36
-15.14
-13.55
-11.79
-10.01
-8.35
-6.94
-5.84
-4.97
-4.18
-3.28
-2.17
-0.87
0.45
1.55
2.19
2.25
1.71
0.69
-0.62
-2.00
-3.25
-4.18
-4.66
-4.66
-4.19
-3.39
-2.43
-1.53
-0.88
-0.59
-0.68
-1.11
-1.76
-2.49
-3.15
-3.61
-3.77
-3.63
-3.21
-2.60
-1.85
-1.02
-0.16
0.68
1.40
1.87
2.01
1.77
1.16
0.27
-0.78
-1.86
-2.79
-3.44
-3.71
-3.60
-3.19
-2.61
-2.00
-1.44
-0.96
-0.58
-0.33
-0.29
-0.50
-0.96
-1.55
-2.14
-2.55
-2.72
-2.66
-2.45
-2.19
-1.93
-1.67
-1.40
-1.10
-0.81
-0.64
-0.72
-1.16
-2.01
-3.20
-4.55
-5.83
-6.83
-7.46
-7.75
-7.88
-8.06
-8.50
-9.28
-10.34
-11.55
-12.72
-13.72
-14.53
-15.22
-15.91
-16.72
-17.74
-19.02
-20.56
-22.35
-24.36
-26.53
-28.82
-31.25
-33.90
-36.89
-40.30
-44.08
-48.07
-52.01
-55.76
-59.35
-63.06
-67.34
-72.56
-78.85
-85.97
-93.32
-100.16
-105.85
-110.10
-113.06
-115.27
-117.29
-119.33
-121.00
-121.30
-118.97
-113.03
-103.43
-91.26
-78.63
-67.84
-60.40
-56.22
-53.15
-47.34
-34.20
-9.77
27.68
76.41
130.78
181.90
219.41
234.14
220.82
179.92
117.84
45.19
-26.33
-87.26
-132.70
-162.83
-181.61
-194.54
-206.31
-219.08
-232.19
-242.80
-247.31
-242.80
-228.07
-203.73
-171.84
-134.84
-94.83
-53.14
-10.39
33.30
77.98
123.73
170.41
217.29
262.81
304.55
339.71
366.03
382.57
390.05
390.42
386.16
379.48
372.08
365.33
360.47
358.63
360.55
366.29
375.03
385.23
394.77
401.30
402.43
396.15
381.40
358.30
328.08
292.62
253.59
211.88
167.64
121.09
73.47
27.61
-12.55
-43.27
-62.72
-72.00
-75.12
-77.78
-85.53
-102.00
-127.77
-160.52
-196.11
-230.01
-258.64
-279.91
-293.10
-298.38
-296.33
-287.78
-273.93
-256.53
-237.79
-220.00
-204.84
-192.83
-183.33
-174.87
-165.86
-155.31
-143.12
-129.94
-116.85
-104.84
-94.44
-85.51
-77.44
-69.44
-60.92
-51.75
-42.26
-33.07
-24.78
-17.70
-11.86
-7.01
-2.86
0.79
4.01
6.76
8.98
10.65
11.81
12.54
12.96
13.19
13.30
13.25
12.85
11.86
10.19
8.04
5.88
4.24
3.43
3.35
3.51
3.25
2.15
0.14
-2.44
-5.09
-7.39
-9.21
-10.67
-12.04
-13.51
-15.10
-16.60
-17.68
-18.06
-17.68
-16.78
-15.89
-15.61
-16.32
-17.95
-20.07
-22.01
-23.15
-23.13
-21.88
-19.49
-16.12
-11.88
-6.86
-1.17
5.00
11.41
17.77
23.79
29.20
33.82
37.66
41.06
44.75
49.75
57.02
67.08
79.69
93.86
108.12
121.03
131.63
139.66
145.56
150.20
154.56
159.47
165.36
172.12
179.04
185.00
188.88
190.22
189.58
188.42
188.40
190.24
192.80
193.10
187.21
171.71
144.96
107.71
62.82
14.48
-32.65
-74.19
-106.80
-128.98
-141.57
-147.79
-152.22
-159.06
-170.32
-185.12
-200.26
-211.97
-217.76
-217.31
-212.03
-203.94
-194.47
-184.07
-172.64
-160.22
-147.44
-135.45
-125.27
-117.28
-111.03
-105.60
-100.14
-94.30
-88.46
-83.41
-79.90
-78.15
-77.64
-77.19
-75.44
-71.47
-65.26
-57.78
-50.58
-45.24
-42.57
-42.30
-43.19
-43.71
-42.85
-40.42
-37.02
-33.37
-29.75
-25.69
-20.21
-12.51
-2.70
8.03
17.68
24.33
26.96
25.88
22.48
18.52
15.26
12.96
10.91
7.88
2.80
-4.65
-13.79
-23.25
-31.54
-37.79
-42.10
-45.59
-49.95
-56.89
-67.53
-82.12
-99.87
-118.76
-135.46
-145.51
-144.24
-128.29
-97.44
-55.49
-9.69
31.41
60.87
75.43
76.05
66.61
51.94
36.25
22.44
12.21
6.31
4.64
6.11
8.80
10.63
10.21
7.63
4.51
3.44
6.99
16.87
33.41
55.31
79.85
103.29
121.67
131.82
132.20
123.41
107.97
89.48
71.63
57.23
47.59
42.37
39.87
37.76
33.90
27.02
17.19
5.66
-5.79
-15.62
-23.24
-29.17
-34.70
-41.10
-49.07
-58.26
-67.37
-74.34
-76.46
-70.54
-53.06
-21.08
25.93
84.31
145.52
197.92
230.62
237.78
221.06
188.76
151.79
118.91
93.64
74.47
57.72
40.82
24.22
10.51
2.39
0.45
2.82
6.33
8.33
7.77
5.04
1.29
-2.83
-7.47
-13.50
-21.86
-32.97
-46.52
-61.67
-77.36
-92.65
-107.05
-120.59
-133.82
-147.46
-161.99
-177.31
-192.67
-206.94
-219.13
-228.81
-236.22
-242.05
-247.07
-251.80
-256.33
-260.18
-262.32
-261.09
-254.41
-240.21
-217.02
-184.55
-143.98
-97.68
-48.54
0.79
48.49
93.77
136.84
178.66
220.83
265.54
315.29
372.14
436.38
505.11
571.76
627.23
662.54
672.08
655.69
618.67
569.35
515.78
463.07
412.75
364.03
315.77
267.92
221.40
177.07
134.82
93.51
51.91
9.64
-32.52
-73.15
-110.85
-144.68
-173.95
-197.74
-214.88
-224.50
-226.78
-223.40
-217.15
-210.79
-205.92
-202.58
-199.66
-195.97
-190.95
-184.80
-177.99
-170.66
-162.42
-152.71
-141.22
-128.29
-114.89
-102.25
-91.32
-82.52
-75.60
-69.83
-64.37
-58.59
-52.29
-45.73
-39.43
-33.94
-29.63
-26.60
-24.63
-23.34
-22.32
-21.30
-20.21
-19.21
-18.56
-18.52
-19.13
-20.17
-21.17
-21.64
-21.21
-19.88
-17.93
-15.82
-13.97
-12.56
-11.55
-10.73
-9.96
-9.20
-8.58
-8.25
-8.25
-8.48
-8.75
-8.85
-8.64
-8.11
-7.34
-6.43
-5.51
-4.69
-4.06
-3.71
-3.65
-3.86
-4.23
-4.64
-4.96
-5.10
-5.05
-4.84
-4.54
-4.20
-3.86
-3.54
-3.22
-2.90
-2.58
-2.24
-1.86
-1.40
-0.86
-0.28
0.29
0.73
0.98
1.01
0.87
0.65
0.44
0.28
0.16
0.02
-0.18
-0.44
-0.71
-0.86
-0.82
-0.55
-0.10
0.43
0.96
1.46
1.91
2.30
2.58
2.68
2.55
2.23
1.83
1.46
1.20
1.01
0.80
0.49
0.08
-0.33
-0.60
-0.65
-0.47
-0.19
0.06
0.19
0.23
0.27
0.43
0.74
1.14
1.50
1.66
1.58
1.30
0.93
0.60
0.38
0.28
0.23
0.19
0.15
0.09
0.04
-0.02
-0.12
-0.29
-0.54
-0.83
-1.10
-1.28
-1.30
-1.19
-1.01
-0.85
-0.80
-0.88
-1.06
-1.25
-1.34
-1.27
-1.04
-0.71
-0.33
0.01
0.27
0.41
0.40
0.28
0.08
-0.11
-0.22
-0.23
-0.15
-0.01
0.12
0.23
0.32
0.43
0.58
0.75
0.90
0.99
0.99
0.93
0.89
0.94
1.10
1.35
1.57
1.62
1.44
1.05
0.55
0.07
-0.30
-0.52
-0.64
-0.73
-0.86
-1.10
-1.47
-1.94
-2.43
-2.77
-2.79
-2.37
-1.49
-0.30
0.97
2.11
2.92
3.34
3.36
3.02
2.39
1.59
0.76
0.05
-0.42
-0.56
-0.39
-0.01
0.45
0.83
1.06
1.14
1.09
0.95
0.76
0.51
0.19
-0.17
-0.49
-0.68
-0.69
-0.56
-0.44
-0.48
-0.75
-1.20
-1.66
-1.93
-1.88
-1.44
-0.68
0.28
1.26
2.12
2.73
3.02
2.97
2.57
1.85
0.86
-0.32
-1.55
-2.64
-3.41
-3.73
-3.58
-3.07
-2.36
-1.62
-0.91
-0.26
0.37
0.96
1.41
1.65
1.59
1.29
0.87
0.54
0.41
0.49
0.69
0.82
0.77
0.52
0.17
-0.13
-0.26
-0.18
0.06
0.36
0.62
0.74
0.63
0.27
-0.31
-0.95
-1.45
-1.66
-1.52
-1.10
-0.59
-0.17
0.05
0.09
0.03
-0.04
-0.09
-0.13
-0.22
-0.37
-0.57
-0.77
-0.91
-0.97
-0.95
-0.86
-0.69
-0.43
-0.07
0.41
1.00
1.65
2.29
2.83
3.19
3.31
3.16
2.72
2.00
1.02
-0.10
-1.21
-2.11
-2.64
-2.76
-2.58
-2.25
-1.95
-1.73
-1.57
-1.39
-1.11
-0.69
-0.20
0.28
0.66
0.87
0.90
0.79
0.60
0.37
0.14
-0.14
-0.49
-0.93
-1.38
-1.70
-1.75
-1.50
-1.05
-0.57
-0.24
-0.13
-0.14
-0.09
0.15
0.57
1.00
1.27
1.22
0.86
0.31
-0.27
-0.71
-0.92
-0.89
-0.68
-0.36
0.01
0.34
0.60
0.73
0.74
0.65
0.51
0.41
0.40
0.50
0.64
0.72
0.62
0.33
-0.03
-0.26
-0.21
0.14
0.63
1.05
1.22
1.11
0.86
0.65
0.59
0.67
0.80
0.83
0.71
0.46
0.19
-0.02
-0.10
-0.03
0.15
0.36
0.50
0.52
0.40
0.16
-0.12
-0.38
-0.61
-0.82
-1.05
-1.29
-1.48
-1.51
-1.33
-0.95
-0.47
-0.05
0.17
0.17
0.01
-0.19
-0.31
-0.30
-0.21
-0.09
-0.03
-0.07
-0.18
-0.26
-0.23
-0.03
0.36
0.87
1.39
1.81
2.03
2.00
1.71
1.20
0.54
-0.17
-0.77
-1.12
-1.13
-0.79
-0.19
0.50
1.10
1.48
1.58
1.42
1.05
0.55
-0.02
-0.62
-1.19
-1.67
-1.96
-1.98
-1.73
-1.27
-0.75
-0.31
-0.05
0.06
0.10
0.18
0.31
0.41
0.38
0.13
-0.28
-0.72
-1.06
-1.21
-1.16
-0.98
-0.72
-0.38
0.02
0.48
0.94
1.30
1.47
1.37
1.03
0.52
0.01
-0.34
-0.43
-0.25
0.07
0.36
0.42
0.19
-0.30
-0.84
-1.25
-1.36
-1.14
-0.69
-0.17
0.25
0.44
0.36
0.02
-0.47
-0.98
-1.36
-1.51
-1.41
-1.13
-0.75
-0.35
0.04
0.44
0.84
1.22
1.50
1.60
1.51
1.30
1.11
1.06
1.19
1.44
1.60
1.50
1.09
0.43
-0.26
-0.76
-0.96
-0.88
-0.69
-0.54
-0.56
-0.76
-1.07
-1.38
-1.58
-1.62
-1.45
-1.10
-0.66
-0.23
0.06
0.09
-0.22
-0.87
-1.82
-2.96
-4.18
-5.35
-6.36
-7.20
-7.89
-8.54
-9.26
-10.09
-11.07
-12.17
-13.38
-14.70
-16.16
-17.74
-19.42
-21.16
-22.91
-24.70
-26.58
-28.61
-30.87
-33.37
-36.14
-39.21
-42.64
-46.44
-50.59
-54.99
-59.53
-64.15
-68.92
-73.95
-79.40
-85.30
-91.54
-97.91
-104.12
-109.91
-115.08
-119.46
-122.97
-125.60
-127.50
-128.94
-130.20
-131.29
-131.92
-131.51
-129.51
-125.93
-121.58
-118.02
-117.02
-119.72
-125.79
-133.14
-138.28
-137.21
-126.75
-105.57
-74.61
-36.65
4.64
46.00
85.57
123.18
160.25
199.27
243.24
294.67
354.26
419.50
484.08
538.76
574.00
583.24
565.36
525.04
470.56
410.47
350.59
292.99
236.79
180.07
121.56
61.48
1.51
-55.68
-106.90
-149.02
-179.56
-197.45
-203.43
-199.69
-189.26
-175.00
-159.18
-143.38
-128.82
-116.45
-106.78
-99.51
-93.44
-86.93
-78.69
-68.44
-57.13
-46.36
-37.68
-31.69
-27.83
-24.64
-20.47
-14.19
-5.68
4.10
13.41
20.31
23.35
22.24
18.18
13.66
11.59
14.15
21.85
33.17
45.18
54.77
59.85
59.99
56.22
50.25
43.69
37.49
32.00
27.21
23.04
19.41
16.18
13.16
10.20
7.29
4.68
2.58
0.98
-0.49
-2.41
-5.19
-8.75
-12.45
-15.34
-16.71
-16.37
-14.75
-12.61
-10.58
-8.87
-7.30
-5.46
-3.12
-0.29
2.74
5.65
8.27
10.63
12.84
15.00
17.09
18.97
20.44
21.30
21.43
20.86
19.76
18.44
17.22
16.32
15.81
15.63
15.67
15.89
16.29
16.71
16.72
15.54
12.26
6.31
-2.27
-12.66
-23.51
-33.40
-41.23
-46.51
-49.31
-50.06
-49.30
-47.51
-45.03
-42.12
-38.99
-35.81
-32.74
-29.87
-27.26
-24.90
-22.80
-20.91
-19.22
-17.71
-16.31
-14.92
-13.43
-11.71
-9.71
-7.44
-4.99
-2.46
0.13
2.78
5.53
8.41
11.34
14.23
17.02
19.76
22.56
25.47
28.27
30.38
31.00
29.48
25.56
19.51
11.88
3.24
-5.97
-15.33
-24.22
-31.69
-36.61
-38.19
-36.46
-32.47
-27.90
-24.32
-22.58
-22.51
-23.19
-23.60
-23.16
-21.87
-20.15
-18.51
-17.17
-16.03
-14.82
-13.33
-11.64
-10.02
-8.79
-8.11
-7.84
-7.62
-7.06
-5.96
-4.41
-2.74
-1.34
-0.46
-0.12
-0.10
-0.09
0.13
0.60
1.20
1.66
1.76
1.39
0.58
-0.53
-1.75
-2.91
-3.89
-4.61
-5.02
-5.09
-4.83
-4.28
-3.56
-2.85
-2.29
-2.00
-1.98
-2.19
-2.50
-2.79
-2.97
-2.99
-2.87
-2.64
-2.32
-1.92
-1.44
-0.91
-0.38
0.03
0.20
0.05
-0.40
-1.08
-1.89
-2.72
-3.54
-4.28
-4.86
-5.11
-4.85
-4.00
-2.65
-1.07
0.40
1.45
1.93
1.86
1.38
0.60
-0.38
-1.52
-2.78
-4.01
-4.97
-5.41
-5.16
-4.23
-2.84
-1.33
-0.08
0.67
0.86
0.59
0.09
-0.46
-0.93
-1.29
-1.54
-1.70
-1.73
-1.63
-1.39
-1.08
-0.74
-0.41
-0.08
0.29
0.69
1.08
1.33
1.34
1.08
0.60
0.05
-0.40
-0.63
-0.60
-0.37
0.01
0.43
0.81
1.06
1.07
0.76
0.15
-0.64
-1.36
-1.76
-1.67
-1.12
-0.25
0.68
1.49
2.03
2.25
2.14
1.70
0.97
0.07
-0.86
-1.61
-2.04
-2.10
-1.85
-1.47
-1.13
-0.99
-1.09
-1.37
-1.70
-1.93
-1.98
-1.85
-1.60
-1.27
-0.86
-0.30
0.45
1.40
2.41
3.27
3.76
3.76
3.31
2.59
1.83
1.24
0.93
0.93
1.18
1.55
1.90
2.13
2.15
1.98
1.66
1.27
0.86
0.51
0.27
0.20
0.30
0.52
0.75
0.87
0.83
0.61
0.34
0.12
0.03
0.06
0.14
0.17
0.08
-0.11
-0.36
-0.56
-0.67
-0.65
-0.50
-0.28
-0.05
0.12
0.16
0.05
-0.19
-0.49
-0.80
-1.09
-1.33
-1.50
-1.57
-1.50
-1.29
-0.95
-0.59
-0.26
-0.05
0.05
0.11
0.18
0.31
0.48
0.63
0.67
0.57
0.33
0.01
-0.33
-0.65
-0.91
-1.11
-1.22
-1.24
-1.13
-0.93
-0.65
-0.36
-0.13
0.00
0.03
-0.02
-0.13
-0.28
-0.46
-0.66
-0.84
-0.92
-0.83
-0.55
-0.15
0.27
0.60
0.73
0.67
0.46
0.19
-0.06
-0.21
-0.22
-0.07
0.27
0.77
1.36
1.92
2.32
2.44
2.20
1.66
0.97
0.32
-0.07
-0.15
0.06
0.38
0.60
0.60
0.33
-0.12
-0.62
-1.09
-1.49
-1.83
-2.18
-2.56
-3.00
-3.45
-3.87
-4.27
-4.70
-5.27
-6.16
-7.53
-9.47
-11.97
-14.88
-17.97
-21.06
-24.05
-27.00
-30.05
-33.35
-36.89
-40.46
-43.71
-46.26
-47.86
-48.56
-48.62
-48.50
-48.67
-49.48
-51.12
-53.58
-56.51
-59.25
-60.75
-59.88
-55.76
-48.18
-37.82
-26.07
-14.53
-4.49
3.62
10.26
16.56
23.76
32.66
43.28
54.85
66.02
75.33
81.59
84.12
82.86
78.24
70.99
62.03
52.34
42.91
34.62
28.05
23.39
20.35
18.36
16.82
15.29
13.64
11.93
10.28
8.66
6.94
4.96
2.65
0.16
-2.30
-4.59
-6.78
-9.16
-12.07
-15.70
-19.94
-24.41
-28.59
-32.10
-34.90
-37.34
-40.00
-43.52
-48.25
-54.17
-60.83
-67.50
-73.52
-78.56
-82.83
-87.07
-92.25
-99.21
-108.26
-118.93
-130.12
-140.29
-148.00
-152.30
-153.14
-151.38
-148.70
-147.11
-148.19
-152.28
-157.73
-161.12
-158.21
-145.54
-122.05
-89.83
-53.71
-19.79
6.61
22.69
29.06
29.51
29.80
36.00
52.86
82.48
123.72
172.43
222.46
267.21
301.39
322.24
329.94
327.26
318.39
307.60
298.03
291.01
286.05
281.35
274.51
263.45
247.10
226.06
202.69
180.55
163.22
152.58
147.49
143.54
134.43
114.47
81.33
37.38
-10.93
-55.62
-90.24
-111.97
-121.97
-123.80
-121.29
-116.97
-111.65
-105.27
-97.97
-90.63
-84.64
-81.09
-80.02
-80.31
-80.19
-78.16
-73.70
-67.39
-60.58
-54.68
-50.42
-47.59
-45.21
-42.03
-37.26
-30.95
-24.02
-17.86
-13.62
-11.75
-11.80
-12.67
-13.11
-12.29
-10.02
-6.72
-3.14
0.01
2.36
3.90
4.93
5.83
6.94
8.41
10.22
12.16
13.95
15.27
15.88
15.70
14.81
13.45
11.93
10.48
9.16
7.85
6.25
4.08
1.09
-2.77
-7.41
-12.57
-17.89
-22.96
-27.35
-30.71
-32.87
-33.85
-33.88
-33.25
-32.29
-31.24
-30.27
-29.51
-29.03
-28.88
-29.08
-29.57
-30.20
-30.75
-31.00
-30.77
-30.01
-28.82
-27.48
-26.36
-25.75
-25.74
-26.07
-26.29
-25.99
-25.16
-24.29
-24.26
-26.06
-30.24
-36.70
-44.64
-52.85
-60.16
-65.85
-69.80
-72.50
-74.83
-77.77
-82.14
-88.31
-96.17
-105.07
-114.09
-122.31
-129.17
-134.66
-139.44
-144.57
-150.89
-158.34
-165.40
-169.11
-165.62
-151.36
-124.37
-85.40
-38.23
10.98
55.27
88.73
108.04
112.99
106.01
90.87
71.32
50.15
29.04
8.72
-10.70
-29.63
-48.76
-68.74
-89.39
-108.98
-124.07
-130.39
-124.18
-103.62
-69.50
-25.03
25.08
75.63
121.83
159.83
187.16
202.99
208.29
205.46
197.61
187.64
177.52
168.11
159.47
151.35
143.47
135.74
128.16
120.76
113.59
106.72
100.25
94.24
88.69
83.51
78.56
73.69
68.78
63.76
58.64
53.48
48.44
43.70
39.39
35.61
32.45
29.97
28.26
27.36
27.23
27.67
28.37
29.01
29.41
29.61
29.88
30.64
32.28
35.06
38.98
43.76
48.89
53.85
58.29
62.30
66.39
71.28
77.54
85.20
93.66
101.95
109.24
115.25
120.49
126.07
133.21
142.78
155.10
169.83
185.94
201.80
215.11
223.11
223.23
213.68
194.15
165.78
130.64
90.78
47.45
1.16
-47.55
-97.03
-144.00
-184.15
-213.51
-230.06
-234.56
-230.18
-221.16
-211.19
-202.19
-194.02
-184.89
-172.51
-155.17
-132.62
-106.30
-78.95
-53.85
-33.77
-20.35
-13.90
-13.65
-18.21
-25.90
-34.85
-43.06
-48.57
-49.91
-46.57
-39.28
-29.80
-20.45
-13.28
-9.55
-9.44
-12.05
-15.77
-18.81
-19.72
-17.83
-13.34
-7.11
-0.22
6.56
12.99
19.39
26.23
33.79
41.86
49.75
56.57
61.66
64.83
66.32
66.43
65.04
61.46
54.67
44.11
30.39
15.67
3.47
-2.04
3.25
22.69
58.13
109.09
171.96
239.72
302.96
352.16
380.51
386.05
371.90
344.44
310.33
274.11
237.45
200.07
161.62
122.92
85.72
51.68
21.01
-7.91
-37.81
-71.35
-110.25
-155.00
-204.91
-257.85
-309.87
-355.09
-386.67
-399.09
-390.65
-364.57
-327.84
-288.09
-250.33
-215.61
-182.30
-148.96
-116.72
-89.45
-71.59
-65.29
-68.73
-76.90
-84.07
-86.35
-82.91
-75.33
-66.42
-58.94
-55.30
-58.04
-70.10
-94.49
-133.18
-185.82
-248.98
-316.56
-381.20
-436.22
-477.15
-502.23
-512.07
-508.68
-494.56
-472.32
-444.61
-414.18
-383.71
-355.33
-330.07
-307.58
-286.51
-265.22
-242.56
-218.36
-193.26
-168.30
-144.38
-121.79
-100.10
-78.38
-55.54
-30.87
-4.26
23.63
51.76
79.04
104.84
129.19
152.70
176.31
201.03
227.81
257.40
290.06
325.00
360.00
391.39
414.82
426.69
425.47
412.34
390.73
364.91
338.46
313.39
290.14
268.40
247.91
228.82
211.53
196.15
182.27
169.03
155.58
141.58
127.29
113.52
101.15
90.76
82.34
75.36
68.98
62.50
55.58
48.40
41.49
35.43
30.57
26.89
24.03
21.51
18.94
16.22
13.44
10.85
8.66
6.95
5.63
4.60
3.73
2.96
2.30
1.76
1.37
1.08
0.87
0.72
0.64
0.63
0.69
0.81
0.97
1.14
1.35
1.60
1.85
2.05
2.13
2.04
1.83
1.61
1.50
1.57
1.75
1.90
1.84
1.50
0.92
0.24
-0.35
-0.73
-0.89
-0.88
-0.80
-0.71
-0.63
-0.54
-0.42
-0.28
-0.15
-0.03
0.10
0.28
0.52
0.78
0.95
0.91
0.61
0.11
-0.46
-0.97
-1.35
-1.58
-1.72
-1.80
-1.82
-1.76
-1.62
-1.44
-1.30
-1.25
-1.27
-1.31
-1.28
-1.15
-0.93
-0.70
-0.51
-0.40
-0.35
-0.34
-0.34
-0.37
-0.44
-0.51
-0.54
-0.45
-0.20
0.17
0.55
0.85
1.03
1.15
1.28
1.44
1.61
1.67
1.57
1.32
1.05
0.93
1.05
1.39
1.82
2.23
2.52
2.70
2.81
2.90
2.98
3.04
3.12
3.27
3.50
3.79
4.03
4.12
4.01
3.74
3.46
3.31
3.40
3.74
4.26
4.88
5.53
6.21
6.90
7.57
8.13
8.48
8.55
8.38
8.16
8.12
8.47
9.18
10.00
10.50
10.32
9.34
7.71
5.72
3.63
1.48
-0.78
-3.16
-5.49
-7.38
-8.44
-8.51
-7.78
-6.68
-5.62
-4.85
-4.34
-3.97
-3.68
-3.60
-3.94
-4.82
-6.14
-7.61
-8.83
-9.54
-9.68
-9.40
-8.94
-8.49
-8.10
-7.72
-7.29
-6.82
-6.41
-6.13
-6.03
-6.04
-6.00
-5.80
-5.37
-4.75
-4.09
-3.53
-3.17
-2.99
-2.90
-2.77
-2.52
-2.14
-1.71
-1.33
-1.07
-0.95
-0.93
-0.93
-0.86
-0.73
-0.55
-0.39
-0.30
-0.28
-0.32
-0.37
-0.40
-0.40
-0.39
-0.38
-0.41
-0.47
-0.56
-0.64
-0.66
-0.57
-0.34
0.03
0.50
1.00
1.47
1.84
2.06
2.13
2.09
2.03
2.04
2.19
2.51
2.95
3.39
3.72
3.89
3.95
4.03
4.24
4.65
5.17
5.65
5.93
5.96
5.83
5.76
5.99
6.63
7.69
9.07
10.54
11.81
12.50
12.21
10.65
7.86
4.22
0.43
-2.79
-4.93
-5.93
-6.07
-5.80
-5.47
-5.20
-4.97
-4.71
-4.41
-4.19
-4.15
-4.32
-4.65
-4.97
-5.13
-5.01
-4.61
-3.99
-3.33
-2.76
-2.42
-2.28
-2.20
-1.98
-1.48
-0.69
0.20
0.93
1.29
1.19
0.68
-0.09
-0.98
-1.88
-2.74
-3.52
-4.17
-4.65
-4.92
-4.98
-4.83
-4.50
-4.01
-3.41
-2.76
-2.18
-1.76
-1.52
-1.41
-1.35
-1.28
-1.16
-1.06
-1.02
-1.07
-1.20
-1.31
-1.33
-1.22
-0.97
-0.67
-0.40
-0.24
-0.20
-0.25
-0.31
-0.32
-0.26
-0.18
-0.14
-0.18
-0.29
-0.41
-0.43
-0.27
0.06
0.52
1.00
1.44
1.77
1.98
2.09
2.16
2.24
2.36
2.57
2.91
3.36
3.89
4.42
4.83
5.03
4.91
4.48
3.86
3.24
2.79
2.60
2.60
2.61
2.41
1.82
0.83
-0.47
-1.88
-3.16
-4.12
-4.62
-4.64
-4.22
-3.51
-2.67
-1.90
-1.32
-1.00
-0.91
-1.01
-1.20
-1.43
-1.66
-1.86
-2.02
-2.12
-2.16
-2.16
-2.16
-2.20
-2.27
-2.29
-2.21
-1.95
-1.55
-1.15
-0.89
-0.92
-1.24
-1.74
-2.22
-2.53
-2.62
-2.53
-2.37
-2.26
-2.21
-2.20
-2.17
-2.06
-1.90
-1.72
-1.56
-1.47
-1.39
-1.26
-1.03
-0.72
-0.39
-0.11
0.02
0.01
-0.13
-0.31
-0.48
-0.61
-0.69
-0.70
-0.67
-0.55
-0.36
-0.10
0.19
0.45
0.65
0.77
0.79
0.73
0.63
0.55
0.58
0.80
1.20
1.70
2.16
2.43
2.45
2.25
1.96
1.72
1.63
1.71
1.92
2.18
2.45
2.70
2.92
3.10
3.24
3.34
3.43
3.56
3.84
4.31
4.96
5.69
6.28
6.45
5.99
4.87
3.26
1.50
-0.01
-1.00
-1.39
-1.28
-0.82
-0.16
0.63
1.46
2.18
2.57
2.43
1.65
0.31
-1.29
-2.81
-3.94
-4.54
-4.65
-4.43
-4.08
-3.75
-3.47
-3.22
-2.93
-2.62
-2.30
-2.06
-1.96
-2.04
-2.30
-2.72
-3.24
-3.78
-4.25
-4.53
-4.55
-4.30
-3.85
-3.32
-2.81
-2.38
-2.02
-1.68
-1.38
-1.12
-0.96
-0.92
-0.96
-1.03
-1.06
-1.03
-0.95
-0.88
-0.85
-0.87
-0.89
-0.85
-0.68
-0.37
-0.01
0.31
0.48
0.44
0.18
-0.21
-0.63
-0.96
-1.13
-1.12
-0.93
-0.61
-0.24
0.12
0.40
0.55
0.53
0.38
0.15
-0.06
-0.15
-0.07
0.15
0.46
0.72
0.86
0.84
0.68
0.46
0.24
0.06
-0.05
-0.09
-0.08
-0.03
0.05
0.13
0.19
0.23
0.27
0.36
0.51
0.68
0.81
0.81
0.68
0.48
0.29
0.22
0.30
0.50
0.71
0.84
0.85
0.77
0.67
0.57
0.49
0.41
0.34
0.34
0.50
0.86
1.36
1.86
2.15
2.09
1.65
0.95
0.12
-0.71
-1.44
-2.02
-2.41
-2.53
-2.38
-2.03
-1.60
-1.28
-1.16
-1.25
-1.44
-1.57
-1.53
-1.31
-0.95
-0.58
-0.32
-0.23
-0.34
-0.59
-0.90
-1.18
-1.34
-1.33
-1.13
-0.76
-0.32
0.06
0.27
0.25
0.04
-0.24
-0.45
-0.52
-0.42
-0.23
-0.01
0.19
0.35
0.48
0.55
0.53
0.41
0.21
-0.02
-0.21
-0.33
-0.39
-0.41
-0.43
-0.46
-0.47
-0.45
-0.42
-0.40
-0.41
-0.42
-0.36
-0.20
0.07
0.37
0.60
0.64
0.46
0.16
-0.10
-0.16
0.06
0.51
1.03
1.46
1.72
1.83
1.89
1.99
2.15
2.31
2.38
2.31
2.16
2.04
2.05
2.23
2.49
2.75
2.92
3.04
3.21
3.51
3.98
4.56
5.19
5.78
6.29
6.68
6.90
6.87
6.50
5.82
4.93
4.08
3.53
3.47
3.95
4.86
6.02
7.25
8.45
9.54
10.48
11.18
11.56
11.56
11.25
10.86
10.68
10.94
11.65
12.53
13.03
12.58
10.77
7.61
3.54
-0.73
-4.43
-7.04
-8.41
-8.70
-8.29
-7.49
-6.52
-5.40
-4.12
-2.68
-1.15
0.38
1.82
3.13
4.22
4.97
5.15
4.51
2.87
0.32
-2.81
-5.97
-8.60
-10.31
-11.02
-10.93
-10.39
-9.74
-9.16
-8.65
-8.14
-7.57
-6.95
-6.39
-5.99
-5.85
-5.97
-6.30
-6.78
-7.29
-7.76
-8.08
-8.15
-7.90
-7.34
-6.52
-5.57
-4.61
-3.77
-3.10
-2.61
-2.29
-2.13
-2.15
-2.35
-2.71
-3.16
-3.60
-3.93
-4.12
-4.20
-4.25
-4.31
-4.40
-4.47
-4.43
-4.20
-3.83
-3.40
-3.03
-2.80
-2.71
-2.69
-2.69
-2.65
-2.55
-2.41
-2.25
-2.05
-1.83
-1.57
-1.32
-1.11
-0.98
-0.97
-1.03
-1.10
-1.10
-0.99
-0.81
-0.68
-0.68
-0.81
-1.01
-1.10
-0.98
-0.67
-0.31
-0.10
-0.13
-0.36
-0.59
-0.63
-0.39
0.05
0.55
0.96
1.21
1.32
1.34
1.29
1.18
1.02
0.87
0.83
0.95
1.16
1.33
1.25
0.81
0.08
-0.70
-1.27
-1.43
-1.19
-0.79
-0.54
-0.68
-1.24
-2.07
-2.88
-3.44
-3.61
-3.48
-3.23
-3.15
-3.53
-4.59
-6.39
-8.79
-11.49
-14.07
-16.23
-17.86
-19.19
-20.54
-22.21
-24.22
-26.33
-28.13
-29.36
-29.97
-30.25
-30.65
-31.57
-33.26
-35.78
-39.07
-42.81
-46.18
-47.68
-45.38
-37.67
-24.20
-6.35
13.03
30.66
44.14
52.81
57.58
60.17
61.94
63.27
63.77
62.91
60.66
57.57
54.25
50.89
47.10
42.32
36.23
28.74
19.83
9.13
-3.95
-19.68
-37.40
-55.33
-71.00
-82.44
-89.25
-92.94
-96.29
-102.16
-112.31
-126.63
-143.17
-158.48
-168.20
-167.70
-153.29
-123.46
-80.08
-28.49
23.68
68.79
101.48
120.11
126.56
124.81
119.04
112.27
105.94
100.42
95.83
92.39
90.43
90.02
90.76
91.84
92.44
92.14
91.00
89.43
87.97
87.02
86.79
87.41
89.00
91.75
95.69
100.64
106.08
111.35
115.95
119.81
123.49
128.11
135.04
145.37
159.22
175.32
190.91
202.09
204.77
196.05
175.58
146.29
113.87
84.83
63.85
51.72
44.76
36.26
19.26
-10.54
-52.98
-103.42
-154.43
-198.32
-229.43
-245.33
-246.87
-237.16
-220.34
-200.35
-180.26
-162.02
-146.76
-135.06
-127.21
-123.11
-122.06
-122.82
-123.88
-123.68
-120.67
-113.23
-99.62
-78.49
-49.60
-14.79
21.54
53.09
73.38
77.99
66.34
42.06
11.61
-18.03
-41.79
-57.67
-66.46
-70.30
-71.13
-69.78
-66.11
-59.81
-51.28
-41.90
-33.52
-27.47
-23.95
-21.94
-19.99
-17.04
-13.16
-9.60
-8.21
-10.63
-17.59
-28.67
-42.37
-56.12
-66.44
-69.31
-61.10
-39.97
-6.98
33.32
73.62
105.60
122.17
119.43
97.61
60.78
15.49
-31.03
-72.59
-105.16
-127.15
-138.93
-142.05
-138.47
-130.31
-119.98
-110.36
-104.70
-105.88
-115.40
-132.60
-154.43
-176.10
-192.14
-198.05
-191.34
-172.25
-143.29
-107.97
-69.05
-27.36
18.25
69.55
126.83
187.18
244.29
289.89
316.37
319.07
297.52
255.21
198.29
134.06
69.60
10.93
-37.69
-74.23
-99.06
-114.41
-123.08
-126.77
-125.05
-115.69
-96.45
-67.02
-29.98
9.72
46.81
77.75
101.55
119.11
131.70
139.73
142.72
140.32
133.50
124.85
117.69
114.53
115.90
120.31
125.16
128.22
128.63
127.14
125.50
125.64
128.80
135.05
143.26
151.55
157.87
160.72
159.71
155.78
150.86
147.17
146.38
149.07
154.46
160.63
164.99
164.91
158.18
143.39
120.05
88.50
49.61
4.55
-45.24
-97.76
-150.06
-198.29
-238.32
-267.01
-283.36
-288.95
-287.28
-282.31
-276.90
-272.08
-267.36
-261.75
-254.86
-247.50
-241.31
-237.86
-237.58
-238.93
-238.61
-232.42
-216.57
-188.91
-149.40
-99.81
-43.04
17.49
78.00
133.96
179.89
209.96
219.10
204.53
166.77
109.69
39.62
-35.97
-109.70
-175.06
-226.71
-260.95
-275.86
-271.61
-250.36
-215.75
-171.84
-122.18
-69.10
-13.98
41.88
96.42
146.45
188.26
218.85
237.22
244.79
244.90
241.40
237.27
234.06
232.06
230.99
230.70
231.35
233.13
235.99
239.53
243.25
247.01
251.18
256.46
263.53
272.56
282.94
293.21
301.29
304.93
302.08
291.32
272.13
244.99
211.22
172.75
131.74
90.09
48.98
8.72
-31.01
-70.63
-110.00
-147.97
-182.47
-211.14
-232.31
-245.63
-252.15
-253.64
-251.58
-247.01
-241.02
-235.88
-235.38
-243.72
-263.27
-292.41
-325.13
-353.09
-369.16
-370.55
-359.71
-342.47
-324.57
-308.72
-293.90
-277.17
-256.48
-232.78
-210.20
-194.24
-188.95
-194.70
-207.54
-220.44
-225.79
-218.14
-196.08
-162.03
-120.78
-77.06
-33.58
9.36
53.06
98.96
147.56
198.26
249.98
301.73
352.66
401.26
444.60
478.17
496.73
496.04
474.24
432.61
375.01
306.75
233.52
160.89
94.09
37.70
-4.94
-32.75
-47.36
-52.76
-53.88
-54.78
-57.36
-61.09
-64.08
-64.59
-62.14
-57.80
-53.59
-51.33
-51.78
-54.29
-56.99
-57.59
-54.14
-45.84
-33.38
-18.75
-4.82
5.52
10.06
7.85
-0.67
-13.93
-29.76
-45.99
-60.93
-73.56
-83.43
-90.44
-94.64
-96.29
-95.97
-94.88
-94.91
-98.47
-107.86
-124.42
-147.90
-176.25
-206.14
-233.80
-255.96
-270.31
-275.54
-271.08
-256.80
-232.96
-200.36
-160.36
-114.63
-64.75
-12.11
41.79
94.70
143.33
183.70
212.42
228.04
231.69
226.63
216.90
205.71
194.64
183.88
173.15
162.71
153.56
146.96
143.52
142.58
142.37
140.82
136.65
129.96
122.34
116.04
112.97
113.74
117.40
121.89
124.99
125.36
123.05
119.50
116.87
117.25
121.97
131.32
144.19
158.12
169.26
172.80
163.90
139.33
99.40
49.01
-2.87
-45.74
-71.12
-75.43
-60.83
-33.73
-1.88
28.19
52.03
66.66
69.33
57.33
29.21
-13.23
-63.82
-112.97
-150.80
-170.77
-171.98
-158.93
-139.08
-119.47
-104.31
-94.26
-87.74
-82.90
-79.18
-77.45
-78.99
-84.08
-91.20
-97.48
-100.04
-97.47
-90.62
-82.15
-75.19
-71.91
-72.74
-76.56
-81.68
-86.70
-91.11
-95.04
-98.68
-102.01
-104.83
-107.25
-110.10
-114.85
-123.02
-135.34
-151.27
-169.13
-186.67
-201.69
-212.28
-216.75
-213.46
-200.91
-178.24
-145.60
-104.21
-55.89
-2.49
54.23
112.02
167.58
216.50
254.23
277.70
286.81
284.61
276.29
267.24
261.28
259.72
261.35
263.33
262.53
256.80
245.78
231.14
215.92
203.41
196.05
194.81
199.25
208.09
219.49
231.00
239.51
241.24
232.59
211.33
177.53
133.72
83.79
31.51
-20.39
-70.09
-115.95
-155.75
-186.71
-206.53
-214.63
-212.76
-204.53
-194.03
-184.28
-176.46
-170.01
-163.66
-156.49
-148.45
-140.17
-132.35
-125.20
-118.32
-110.97
-102.54
-92.87
-82.48
-72.26
-63.16
-55.74
-50.08
-45.71
-41.96
-38.23
-34.30
-30.40
-27.00
-24.53
-23.12
-22.49
-22.05
-21.12
-19.24
-16.28
-12.55
-8.58
-4.98
-2.13
-0.16
1.11
1.97
2.65
3.22
3.61
3.71
3.49
3.03
2.55
2.24
2.23
2.51
2.96
3.38
3.62
3.61
3.41
3.22
3.26
3.67
4.42
5.36
6.23
6.92
7.47
8.10
9.04
10.32
11.73
12.82
13.09
12.19
10.04
6.85
3.04
-0.97
-4.86
-8.50
-11.98
-15.48
-19.14
-22.92
-26.52
-29.46
-31.37
-32.27
-32.72
-33.72
-36.41
-41.69
-50.04
-61.42
-75.41
-91.32
-108.36
-125.66
-142.54
-158.63
-174.09
-189.38
-204.82
-219.95
-233.01
-241.18
-241.24
-230.81
-209.34
-178.33
-140.80
-100.00
-58.04
-14.91
31.30
82.83
140.04
199.55
254.00
293.90
310.86
300.44
263.31
204.25
130.16
48.31
-34.05
-109.32
-169.40
-206.75
-216.60
-198.77
-157.97
-102.21
-40.18
20.88
75.89
121.46
155.29
176.24
184.72
183.10
175.17
164.83
154.70
145.69
137.45
129.20
120.45
111.02
100.86
89.76
77.55
64.45
51.25
39.11
29.02
21.37
15.84
11.67
8.16
4.96
2.10
-0.26
-2.13
-3.70
-5.33
-7.25
-9.55
-12.13
-14.70
-16.82
-18.04
-17.98
-16.46
-13.54
-9.45
-4.58
0.68
5.92
10.74
14.73
17.59
19.18
19.63
19.31
18.68
18.16
17.97
18.13
18.52
19.00
19.42
19.70
19.73
19.45
18.89
18.19
17.60
17.39
17.73
18.59
19.71
20.64
20.85
19.84
17.25
13.00
7.38
1.07
-5.08
-10.20
-13.71
-15.48
-15.80
-15.24
-14.32
-13.41
-12.63
-11.92
-11.21
-10.50
-9.85
-9.30
-8.87
-8.46
-7.95
-7.28
-6.45
-5.58
-4.83
-4.36
-4.20
-4.26
-4.36
-4.30
-3.95
-3.33
-2.58
-1.86
-1.30
-0.91
-0.70
-0.64
-0.75
-1.03
-1.45
-1.88
-2.12
-2.03
-1.58
-0.91
-0.23
0.26
0.48
0.48
0.36
0.24
0.11
-0.04
-0.24
-0.47
-0.66
-0.77
-0.79
-0.80
-0.87
-1.05
-1.28
-1.44
-1.44
-1.27
-0.98
-0.69
-0.51
-0.49
-0.62
-0.89
-1.28
-1.76
-2.27
-2.80
-3.30
-3.75
-4.12
-4.36
-4.37
-4.12
-3.62
-3.01
-2.49
-2.27
-2.43
-2.92
-3.59
-4.28
-4.89
-5.43
-5.97
-6.57
-7.25
-7.96
-8.67
-9.39
-10.17
-11.04
-11.93
-12.59
-12.69
-11.93
-10.13
-7.37
-3.92
-0.16
3.58
7.03
10.00
12.33
13.87
14.54
14.37
13.57
12.45
11.31
10.37
9.65
9.03
8.37
7.57
6.68
5.84
5.21
4.87
4.77
4.75
4.64
4.35
3.90
3.39
2.97
2.73
2.68
2.73
2.77
2.70
2.48
2.12
1.68
1.25
0.88
0.63
0.49
0.46
0.51
0.62
0.77
0.94
1.13
1.34
1.53
1.63
1.57
1.30
0.84
0.29
-0.19
-0.49
-0.56
-0.47
-0.36
-0.34
-0.47
-0.70
-0.93
-1.04
-1.00
-0.85
-0.64
-0.43
-0.25
-0.11
-0.00
0.04
-0.01
-0.14
-0.29
-0.39
-0.38
-0.26
-0.09
0.06
0.10
0.00
-0.20
-0.45
-0.68
-0.82
-0.81
-0.68
-0.45
-0.18
0.06
0.22
0.28
0.27
0.21
0.15
0.13
0.17
0.25
0.34
0.37
0.30
0.14
-0.05
-0.19
-0.21
-0.10
0.07
0.22
0.32
0.36
0.38
0.39
0.38
0.30
0.14
-0.07
-0.25
-0.32
-0.26
-0.11
0.05
0.15
0.18
0.16
0.12
0.08
0.04
0.00
-0.02
0.01
0.12
0.28
0.45
0.58
0.66
0.67
0.64
0.59
0.51
0.39
0.23
0.05
-0.11
-0.20
-0.20
-0.11
0.01
0.13
0.17
0.10
-0.10
-0.39
-0.72
-0.98
-1.12
-1.08
-0.89
-0.63
-0.39
-0.23
-0.21
-0.31
-0.52
-0.78
-1.05
-1.27
-1.38
-1.31
-1.04
-0.61
-0.16
0.20
0.32
0.20
-0.09
-0.39
-0.56
-0.52
-0.27
0.08
0.42
0.63
0.69
0.58
0.38
0.13
-0.13
-0.40
-0.69
-0.99
-1.26
-1.45
-1.51
-1.45
-1.31
-1.18
-1.12
-1.14
-1.22
-1.33
-1.44
-1.55
-1.66
-1.76
-1.74
-1.53
-1.06
-0.36
0.45
1.23
1.84
2.27
2.52
2.68
2.79
2.84
2.79
2.61
2.33
1.99
1.69
1.50
1.43
1.44
1.44
1.37
1.19
0.94
0.68
0.49
0.42
0.46
0.56
0.66
0.73
0.80
0.93
1.18
1.51
1.84
2.00
1.89
1.47
0.81
0.04
-0.68
-1.24
-1.57
-1.67
-1.56
-1.29
-0.96
-0.67
-0.49
-0.49
-0.65
-0.91
-1.19
-1.41
-1.52
-1.50
-1.36
-1.12
-0.84
-0.57
-0.37
-0.29
-0.33
-0.42
-0.50
-0.47
-0.30
-0.02
0.29
0.49
0.50
0.29
-0.09
-0.51
-0.85
-1.03
-1.05
-0.97
-0.88
-0.88
-0.98
-1.17
-1.38
-1.51
-1.53
-1.41
-1.20
-0.95
-0.69
-0.39
-0.00
0.52
1.12
1.68
2.06
2.18
2.10
2.01
2.11
2.46
2.98
3.47
3.71
3.59
3.17
2.64
2.18
1.93
1.91
2.07
2.32
2.59
2.82
2.91
2.81
2.45
1.86
1.13
0.41
-0.11
-0.37
-0.34
-0.14
0.16
0.47
0.82
1.27
1.90
2.72
3.69
4.72
5.72
6.62
7.36
7.97
8.45
8.84
9.17
9.47
9.76
10.08
10.46
10.97
11.73
12.84
14.28
15.85
17.13
17.61
16.82
14.51
10.71
5.73
-0.02
-6.07
-11.99
-17.38
-21.85
-25.09
-26.88
-27.23
-26.38
-24.79
-23.01
-21.52
-20.64
-20.39
-20.57
-20.89
-21.02
-20.79
-20.21
-19.42
-18.66
-18.15
-18.05
-18.44
-19.20
-19.95
-19.96
-18.31
-14.14
-7.04
2.66
13.90
25.11
34.78
41.89
46.25
48.43
49.49
50.55
52.49
55.70
60.09
65.20
70.42
75.25
79.55
83.58
88.01
93.53
100.53
108.80
117.60
125.87
132.82
138.33
143.05
148.19
155.11
164.84
177.81
193.50
210.33
225.61
235.95
237.97
229.36
209.61
180.20
143.94
103.87
62.04
19.01
-25.88
-73.29
-122.66
-171.45
-215.43
-249.99
-271.82
-280.15
-277.06
-266.57
-253.14
-240.06
-228.70
-218.77
-209.19
-199.10
-188.37
-177.43
-166.69
-156.19
-145.55
-134.49
-123.27
-112.88
-104.81
-100.32
-99.72
-101.90
-104.47
-104.46
-99.38
-88.13
-71.48
-51.86
-32.44
-16.03
-4.00
4.06
9.85
15.38
21.82
29.00
35.63
40.15
41.59
39.97
36.03
30.63
24.29
17.00
8.65
-0.54
-9.88
-18.33
-25.10
-30.03
-33.73
-37.22
-41.51
-47.09
-53.92
-61.44
-68.98
-75.92
-81.85
-86.63
-90.48
-94.07
-98.43
-104.30
-111.40
-117.77
-119.81
-113.31
-94.81
-62.89
-18.49
35.53
95.27
156.59
215.55
268.70
313.20
347.00
368.96
378.68
376.09
361.21
333.97
294.55
243.70
183.41
117.14
50.00
-11.74
-61.76
-95.23
-110.27
-108.76
-95.94
-78.88
-64.18
-56.23
-56.48
-63.79
-75.57
-88.86
-101.16
-110.78
-116.84
-119.10
-117.60
-112.35
-103.32
-90.77
-75.81
-60.54
-47.62
-39.18
-35.92
-36.72
-39.28
-41.36
-41.94
-41.60
-42.04
-44.92
-50.81
-58.88
-67.35
-74.30
-78.61
-80.35
-80.56
-80.74
-82.42
-86.76
-94.35
-104.91
-116.92
-127.44
-132.28
-126.80
-107.40
-73.06
-26.38
26.67
78.24
121.01
150.15
164.44
165.86
158.23
145.73
132.03
120.13
112.40
110.34
113.53
118.80
120.17
110.45
84.09
39.92
-17.58
-79.24
-134.02
-172.19
-187.76
-179.34
-149.66
-104.43
-50.99
2.95
50.61
87.27
111.15
123.33
126.85
125.30
121.69
117.90
114.93
113.43
113.94
116.83
121.99
128.63
135.36
140.80
144.14
145.60
146.36
148.10
152.32
159.71
169.95
181.85
193.76
204.08
211.71
216.04
216.71
213.36
205.63
193.45
177.24
157.94
136.41
112.87
86.71
57.10
24.03
-10.84
-44.41
-73.57
-97.06
-116.60
-136.20
-159.87
-189.00
-220.91
-249.74
-269.08
-274.87
-267.08
-249.39
-227.44
-206.64
-190.62
-180.84
-176.99
-177.82
-181.76
-187.37
-193.41
-198.82
-202.62
-204.01
-202.56
-198.32
-192.00
-184.62
-176.95
-169.14
-160.72
-151.38
-141.62
-133.04
-127.39
-125.13
-124.19
-119.90
-106.37
-78.53
-34.38
23.74
89.09
151.84
200.94
226.60
222.44
187.11
125.18
46.68
-34.75
-104.97
-152.66
-171.96
-163.42
-133.05
-90.18
-44.65
-4.75
23.92
38.51
38.69
26.61
7.01
-12.92
-25.14
-23.07
-4.17
28.87
69.10
107.90
138.26
156.92
164.61
164.63
160.80
155.73
150.38
144.58
138.04
130.98
124.24
118.82
115.41
114.02
113.99
114.36
114.26
113.23
111.37
109.26
107.66
107.26
108.45
111.26
115.44
120.52
125.81
130.39
133.17
133.00
129.11
121.36
110.52
98.07
85.76
74.74
64.98
54.97
42.15
23.88
-1.37
-33.11
-68.68
-104.02
-134.97
-158.56
-173.53
-180.01
-178.64
-169.77
-153.40
-129.86
-100.69
-68.93
-38.69
-13.76
3.61
13.49
17.82
19.40
20.73
23.27
27.54
33.51
41.09
49.94
58.94
65.54
65.86
55.88
33.27
-0.92
-41.84
-82.27
-115.20
-136.43
-145.81
-146.59
-143.28
-139.49
-136.84
-135.42
-135.18
-136.84
-141.92
-151.63
-165.78
-182.45
-198.96
-213.24
-224.87
-234.76
-243.87
-251.67
-255.51
-251.45
-236.02
-207.81
-167.96
-119.54
-66.23
-11.35
42.26
91.85
134.50
167.43
188.77
198.47
198.46
191.98
182.44
172.33
162.87
154.19
145.91
137.71
129.55
121.60
114.05
106.93
100.14
93.47
86.75
79.95
73.23
66.85
61.00
55.79
51.13
46.84
42.74
38.75
34.90
31.30
28.07
25.24
22.76
20.51
18.37
16.26
14.15
12.10
10.22
8.60
7.30
6.31
5.52
4.81
4.05
3.20
2.31
1.49
0.88
0.55
0.54
0.79
1.19
1.61
1.96
2.19
2.33
2.47
2.72
3.13
3.67
4.22
4.63
4.84
4.96
5.24
5.96
7.22
8.87
10.53
11.76
12.31
12.27
12.03
12.09
12.79
14.21
16.04
17.86
19.29
20.21
20.78
21.37
22.39
24.12
26.68
29.97
33.72
37.39
40.14
40.95
38.92
33.64
25.51
15.81
6.30
-1.41
-6.48
-9.05
-10.06
-10.66
-11.64
-13.12
-14.72
-15.98
-16.84
-17.79
-19.66
-23.15
-28.30
-34.40
-40.15
-44.26
-46.03
-45.58
-43.78
-41.79
-40.47
-40.10
-40.28
-40.29
-39.47
-37.54
-34.73
-31.61
-28.85
-26.95
-26.14
-26.33
-27.29
-28.77
-30.45
-31.94
-32.66
-31.86
-28.91
-23.56
-16.26
-8.01
-0.07
6.60
11.64
15.32
18.21
20.79
23.14
25.03
26.15
26.34
25.75
24.73
23.58
22.44
21.30
20.03
18.59
17.08
15.68
14.57
13.83
13.43
13.24
13.10
12.88
12.56
12.19
11.87
11.67
11.58
11.56
11.53
11.43
11.30
11.22
11.29
11.56
12.04
12.66
13.33
13.98
14.59
15.22
15.94
16.87
18.07
19.56
21.26
22.83
23.75
23.36
21.15
16.95
11.16
4.66
-1.45
-6.24
-9.24
-10.51
-10.43
-9.47
-7.94
-5.95
-3.49
-0.65
2.35
5.11
7.31
8.82
9.86
10.91
12.52
15.02
18.25
21.55
23.91
24.19
21.47
15.20
5.36
-7.51
-22.35
-37.69
-51.89
-63.55
-71.82
-76.71
-78.91
-79.47
-79.39
-79.23
-79.12
-78.99
-78.80
-78.78
-79.27
-80.61
-82.81
-85.38
-87.31
-87.22
-83.69
-75.64
-62.75
-45.62
-25.79
-5.26
14.06
30.90
44.85
56.12
65.11
71.95
76.32
77.80
76.31
72.60
68.20
65.02
64.53
67.10
71.65
76.12
78.29
76.73
71.50
64.12
57.11
53.07
53.77
59.54
68.84
78.17
82.49
76.32
55.33
18.32
-31.45
-86.20
-135.35
-168.68
-179.75
-168.11
-139.10
-101.56
-64.34
-33.47
-11.04
3.92
13.53
19.40
22.03
21.39
17.95
13.26
9.56
8.76
11.33
16.05
20.57
22.64
21.15
16.62
10.93
6.50
5.29
8.12
14.45
22.68
30.82
37.23
41.15
42.84
43.31
43.78
45.12
47.55
50.64
53.65
55.93
57.22
57.78
58.22
59.27
61.55
65.45
71.01
77.90
85.44
92.59
98.02
100.44
98.90
93.28
84.44
74.15
64.62
57.82
54.98
56.22
60.66
66.81
73.07
78.30
82.31
86.03
91.20
99.37
110.65
122.83
131.54
131.64
119.23
93.24
55.70
10.34
-39.20
-90.62
-142.55
-193.47
-240.58
-280.05
-308.52
-324.59
-329.14
-324.19
-311.05
-289.43
-258.35
-218.23
-172.48
-127.44
-90.21
-65.66
-54.54
-53.73
-58.27
-63.97
-68.80
-72.72
-76.48
-80.36
-83.82
-86.01
-86.67
-86.50
-86.86
-89.01
-93.49
-99.99
-107.46
-114.51
-119.63
-121.22
-117.83
-108.43
-92.76
-71.29
-44.85
-14.02
21.16
60.75
104.10
149.01
191.69
227.86
254.28
270.09
277.03
278.48
277.92
277.62
278.25
279.39
280.38
281.20
282.70
286.46
294.07
306.15
321.56
337.05
347.89
349.18
337.56
312.41
276.04
232.62
186.54
140.92
97.04
54.70
13.10
-28.40
-70.18
-112.80
-157.20
-204.37
-254.37
-305.44
-353.90
-395.26
-425.79
-443.93
-450.58
-448.18
-439.41
-426.16
-409.46
-390.09
-369.33
-349.17
-331.88
-319.32
-312.37
-310.79
-313.25
-317.45
-320.26
-318.15
-307.93
-287.86
-258.22
-221.20
-179.97
-137.27
-94.35
-50.65
-4.74
44.34
95.58
145.56
189.23
221.52
239.26
242.12
232.71
215.52
195.57
177.22
163.54
156.19
155.45
160.43
169.26
179.41
188.30
193.84
194.93
191.47
184.12
173.95
162.28
150.38
139.35
129.88
122.12
115.75
110.12
104.52
98.22
90.64
81.50
70.88
59.37
47.81
37.02
27.43
19.01
11.48
4.61
-1.64
-7.32
-12.80
-18.93
-26.71
-36.73
-48.68
-61.37
-73.23
-82.97
-89.92
-93.80
-94.30
-90.90
-83.12
-71.26
-56.83
-42.42
-30.85
-24.10
-22.60
-25.21
-29.76
-33.76
-35.06
-32.25
-24.86
-13.47
0.36
14.55
27.06
36.62
43.00
46.86
49.18
50.60
51.25
50.90
49.45
47.23
45.00
43.61
43.55
44.75
46.61
48.32
49.19
48.95
47.80
46.37
45.47
45.79
47.61
50.69
54.35
57.64
59.85
60.79
60.87
60.95
62.08
65.01
69.91
76.20
82.63
87.47
88.61
83.82
71.23
49.91
20.52
-14.50
-51.32
-85.72
-114.24
-135.04
-148.21
-155.30
-158.52
-160.02
-161.51
-164.11
-168.63
-175.61
-185.10
-196.14
-206.20
-211.25
-206.39
-187.40
-152.66
-104.54
-49.29
4.61
49.23
79.78
95.71
100.10
97.56
92.11
85.94
79.60
72.92
66.07
59.90
55.52
53.54
53.60
54.35
54.18
52.00
47.69
42.16
36.87
33.16
31.73
32.39
34.25
36.15
37.17
36.91
35.63
34.00
32.79
32.52
33.31
34.80
36.42
37.62
38.05
37.77
37.11
36.64
36.87
38.20
40.69
44.13
48.05
51.89
55.14
57.57
59.38
61.21
64.10
69.05
76.59
86.23
96.30
104.24
107.51
104.61
95.86
83.53
70.97
61.52
57.47
59.74
67.98
80.78
95.85
110.07
119.87
122.15
115.53
101.22
82.98
65.98
54.89
52.47
59.09
73.45
93.61
117.62
143.25
167.45
186.13
194.98
190.90
173.39
144.86
109.58
71.93
34.69
-1.90
-39.55
-80.38
-125.11
-171.82
-216.12
-252.46
-276.16
-285.14
-280.53
-266.04
-246.37
-225.43
-205.41
-186.87
-169.57
-153.37
-138.68
-126.14
-116.03
-107.89
-100.61
-93.02
-84.42
-74.88
-65.12
-56.05
-48.27
-41.82
-36.19
-30.58
-24.39
-17.47
-10.30
-3.71
1.44
4.63
5.88
5.72
4.99
4.58
5.27
7.57
11.74
17.77
25.33
33.88
42.76
51.39
59.44
66.95
74.23
81.80
90.03
99.03
108.67
118.59
128.40
137.65
145.80
151.95
154.94
153.52
146.82
134.68
117.49
95.68
69.06
36.83
-1.69
-45.79
-92.43
-136.43
-171.89
-194.44
-202.92
-199.67
-189.28
-176.43
-164.11
-153.09
-142.55
-131.40
-119.35
-107.00
-95.28
-84.68
-74.85
-64.92
-54.19
-42.73
-31.44
-21.76
-14.94
-11.65
-11.87
-15.09
-20.67
-27.83
-35.67
-43.05
