1540451307.00
64.000000
-0.00
-0.00
-0.00
-0.00
-0.00
-0.00
-0.00
-0.00
-0.00
-0.00
0.00
0.01
0.01
-0.00
-0.03
-0.05
-0.05
0.00
0.13
0.36
0.66
1.01
1.37
1.72
2.06
2.40
2.79
3.24
3.80
4.42
5.06
5.66
6.20
6.68
7.15
7.68
8.31
9.14
10.09
11.04
11.88
12.56
13.14
13.76
14.65
15.96
17.91
20.32
22.90
25.38
27.58
29.57
31.68
34.32
37.81
42.54
48.15
54.10
59.83
64.97
69.58
74.14
79.34
85.71
93.76
103.00
112.62
121.73
129.77
136.75
143.30
150.75
157.77
166.64
177.95
191.79
206.97
220.57
228.25
225.36
208.53
176.87
132.76
80.05
23.07
-34.94
-92.44
-149.16
-205.23
-260.37
-313.74
-363.87
-409.83
-450.91
-486.50
-515.74
-537.23
-549.22
-549.96
-538.37
-514.21
-478.67
-433.88
-382.45
-327.02
-269.84
-212.63
-156.66
-102.95
-52.37
-5.90
35.58
71.43
101.35
125.50
144.38
158.69
169.15
176.37
180.75
182.57
182.07
179.51
175.23
169.65
163.18
156.15
148.81
141.30
133.69
126.02
118.33
110.69
103.16
95.80
88.68
81.83
75.25
68.95
62.95
57.25
51.86
46.78
42.03
37.59
33.45
29.61
26.07
22.81
19.83
17.11
14.67
12.48
10.54
8.83
7.35
6.07
4.97
4.05
3.27
2.62
2.09
1.65
1.30
1.01
0.79
0.61
0.47
0.37
0.29
0.23
0.20
0.17
0.16
0.16
0.17
0.19
0.22
0.25
0.28
0.33
0.37
0.41
0.46
0.51
0.55
0.60
0.65
0.71
0.77
0.84
0.91
0.99
1.07
1.17
1.27
1.39
1.53
1.68
1.85
2.04
2.25
2.48
2.74
3.02
3.33
3.68
4.05
4.46
4.91
5.39
5.91
6.47
7.07
7.71
8.39
9.12
9.90
10.72
11.58
12.50
13.45
14.47
15.54
16.69
17.89
19.15
20.43
21.70
22.90
23.93
24.68
25.03
24.86
24.05
22.55
20.32
17.38
13.78
9.67
5.23
0.67
-3.81
-7.98
-11.66
-14.69
-17.00
-18.53
-19.28
-19.33
-18.77
-17.72
-16.31
-14.68
-12.95
-11.19
-9.44
-7.67
-5.91
-4.15
-2.40
-0.65
1.10
2.82
4.54
6.28
8.16
10.07
12.06
14.10
16.20
18.34
20.52
22.76
25.17
27.92
30.93
34.15
37.55
41.04
44.49
47.80
50.94
54.06
57.51
61.15
65.05
69.16
73.32
77.24
80.62
83.32
85.40
87.28
88.74
89.80
90.26
89.69
87.34
82.22
73.09
58.34
40.98
22.08
2.46
-17.33
-37.00
-56.57
-76.40
-97.20
-119.92
-145.14
-173.14
-202.41
-229.72
-251.01
-262.79
-263.51
-254.20
-237.97
-218.79
-200.69
-186.16
-176.02
-169.72
-165.62
-161.31
-153.84
-140.26
-118.44
-88.32
-51.86
-12.76
24.68
56.64
80.79
96.47
104.45
106.26
103.50
97.64
89.92
81.27
72.44
64.02
56.43
50.00
44.90
41.14
38.67
37.42
37.31
38.23
39.96
41.99
43.53
43.61
41.42
36.63
29.55
21.00
12.01
3.41
-4.38
-11.45
-18.32
-25.75
-34.53
-45.12
-57.36
-70.02
-80.78
-86.64
-84.75
-73.51
-53.24
-26.33
3.49
32.24
56.73
75.08
86.79
92.23
92.25
87.87
80.14
70.26
59.43
48.75
39.06
30.79
24.05
18.73
14.74
12.08
10.88
11.22
12.88
15.29
17.47
18.30
16.85
12.75
6.32
-1.62
-10.00
-17.94
-25.05
-31.59
-38.29
-46.16
-56.02
-68.04
-81.32
-93.78
-102.43
-104.15
-96.69
-79.58
-54.38
-24.41
6.30
34.05
56.31
71.98
81.11
84.45
82.99
77.84
70.12
61.02
51.74
43.22
35.99
30.11
25.34
21.37
18.12
15.82
14.85
15.39
17.15
19.30
20.62
19.92
16.49
10.37
2.27
-6.69
-15.40
-23.23
-30.06
-36.40
-43.16
-51.34
-61.72
-74.27
-87.83
-99.92
-107.22
-106.47
-95.71
-75.08
-47.05
-15.66
14.74
40.71
60.41
73.50
80.65
82.79
80.83
75.58
68.02
59.29
50.61
42.95
36.79
32.04
28.27
24.99
22.03
19.56
18.04
17.81
18.83
20.46
21.60
21.09
18.08
12.44
4.71
-4.07
-12.78
-20.68
-27.55
-33.77
-40.16
-47.73
-57.39
-69.42
-83.07
-96.22
-105.69
-107.97
-100.40
-82.31
-55.45
-23.57
8.73
37.39
59.81
75.16
83.99
87.47
86.77
82.82
76.40
68.27
59.38
50.80
43.43
37.88
34.18
31.97
30.69
29.88
29.37
29.26
29.72
30.75
31.91
32.50
31.63
28.59
23.06
15.25
5.83
-4.26
-14.07
-22.88
-30.37
-36.74
-42.59
-48.87
-56.59
-66.44
-78.39
-91.30
-102.86
-109.93
-109.41
-99.26
-79.39
-51.85
-20.38
10.75
37.86
58.72
72.64
80.17
82.39
80.47
75.38
67.97
59.12
49.82
41.06
33.73
28.39
25.16
23.75
23.65
24.24
25.02
25.73
26.30
26.73
26.97
26.76
25.63
23.02
18.54
12.16
4.25
-4.43
-13.06
-20.94
-27.74
-33.54
-38.71
-43.87
-49.72
-56.92
-65.83
-76.22
-86.87
-95.56
-99.47
-95.95
-83.49
-62.44
-35.06
-4.97
23.93
48.49
66.85
78.55
84.14
84.63
81.12
74.65
66.18
56.70
47.20
38.61
31.69
26.85
24.20
23.49
24.26
25.95
28.04
30.10
31.77
32.75
32.77
31.62
29.17
25.42
20.45
14.40
7.43
-0.29
-8.49
-16.81
-24.80
-32.06
-38.38
-43.79
-48.67
-53.65
-59.47
-66.78
-75.83
-86.05
-95.93
-103.03
-104.56
-98.19
-83.00
-59.94
-31.76
-2.22
24.91
46.84
62.29
71.29
74.82
74.19
70.63
65.18
58.74
52.04
45.73
40.26
35.78
32.29
29.64
27.78
26.75
26.66
27.51
29.06
30.81
32.06
32.18
30.77
27.81
23.61
18.66
13.38
8.01
2.47
-3.44
-9.93
-16.97
-24.29
-31.43
-37.95
-43.64
-48.63
-53.45
-58.82
-65.43
-73.59
-82.93
-92.11
-98.89
-100.57
-94.77
-80.38
-58.13
-30.58
-1.54
25.15
46.64
61.63
70.34
73.89
73.61
70.56
65.49
58.97
51.66
44.29
37.61
32.10
27.93
25.01
23.18
22.43
22.86
24.58
27.44
30.88
33.98
35.74
35.47
32.99
28.67
23.15
17.04
10.69
4.14
-2.75
-10.07
-17.75
-25.52
-32.99
-39.78
-45.66
-50.61
-54.87
-59.00
-63.77
-69.92
-77.71
-86.43
-94.25
-98.45
-96.27
-85.90
-67.37
-42.70
-15.31
11.00
33.19
49.63
60.08
65.28
66.24
63.93
59.09
52.41
44.66
36.69
29.36
23.34
19.02
16.51
15.66
16.15
17.58
19.49
21.43
22.95
23.70
23.42
22.00
19.47
15.93
11.54
6.35
0.41
-6.22
-13.37
-20.69
-27.71
-33.96
-39.18
-43.44
-47.22
-51.26
-56.38
-63.14
-71.53
-80.70
-88.88
-93.60
-92.33
-83.28
-66.15
-42.43
-15.12
12.09
35.87
54.03
65.79
71.56
72.40
69.55
64.07
56.87
48.68
40.27
32.32
25.46
20.13
16.49
14.46
13.80
14.18
15.21
16.51
17.71
18.49
18.65
18.07
16.71
14.53
11.40
7.17
1.70
-4.98
-12.56
-20.50
-28.19
-35.14
-41.15
-46.42
-51.38
-56.66
-62.89
-70.49
-79.44
-88.93
-97.25
-101.91
-100.33
-90.69
-72.74
-48.10
-19.91
8.10
32.63
51.62
64.43
71.52
73.96
72.80
68.97
63.25
56.29
48.80
41.46
34.86
29.37
25.14
22.10
20.03
18.70
17.89
17.47
17.39
17.59
17.96
18.25
18.09
16.98
14.42
10.17
4.27
-2.80
-10.30
-17.46
-23.76
-29.09
-33.80
-38.42
-43.59
-49.85
-57.56
-66.82
-77.14
-87.28
-95.14
-98.13
-93.87
-81.21
-60.73
-34.82
-6.97
19.27
41.22
57.50
67.93
72.98
73.38
69.79
62.97
53.93
43.92
34.30
26.16
20.10
16.07
13.61
12.15
11.31
11.05
11.54
12.98
15.30
18.02
20.29
21.18
19.91
16.19
10.25
2.84
-5.13
-12.81
-19.67
-25.65
-31.07
-36.52
-42.75
-50.35
-59.60
-69.95
-79.97
-87.36
-89.52
-84.38
-71.21
-51.03
-26.38
-0.59
23.18
42.62
56.64
65.10
68.41
67.28
62.50
54.98
45.71
35.75
26.02
17.20
9.65
3.54
-1.04
-3.97
-5.16
-4.66
-2.81
-0.35
1.81
2.79
2.03
-0.62
-4.87
-10.21
-16.12
-22.22
-28.45
-35.02
-42.46
-51.40
-62.27
-74.80
-87.64
-98.32
-103.68
-100.94
-88.71
-67.77
-40.93
-12.28
14.16
35.50
50.48
59.32
63.01
62.64
59.02
52.65
43.95
33.52
22.27
11.34
1.84
-5.43
-10.10
-12.37
-12.88
-12.43
-11.79
-11.46
-11.64
-12.31
-13.43
-15.07
-17.48
-21.09
-26.39
-33.87
-43.89
-56.39
-70.47
-84.26
-94.98
-99.58
-95.63
-82.32
-60.76
-33.83
-5.25
21.44
43.70
60.30
71.08
76.50
77.23
73.99
67.55
58.86
49.05
39.30
30.58
23.56
18.40
14.88
12.53
10.84
9.48
8.31
7.36
6.69
6.18
5.43
3.80
0.45
-5.45
-14.48
-26.72
-41.41
-56.79
-70.16
-78.29
-78.34
-68.73
-49.84
-24.09
4.74
32.56
56.14
73.72
85.05
90.87
92.21
89.95
84.67
76.87
67.17
56.54
46.18
37.28
30.61
26.38
24.07
22.76
21.46
19.50
16.77
13.54
10.23
7.02
3.71
-0.29
-5.71
-13.19
-23.11
-35.54
-50.13
-65.84
-80.79
-92.28
-97.17
-92.88
-78.33
-54.57
-24.64
7.22
36.81
61.04
78.45
89.07
93.84
94.02
90.80
85.14
77.89
69.80
61.55
53.68
46.50
40.19
34.84
30.55
27.41
25.43
24.36
23.61
22.47
20.22
16.47
11.21
4.78
-2.32
-9.73
-17.33
-25.33
-34.24
-44.74
-57.28
-71.61
-86.28
-98.60
-105.08
-102.46
-89.04
-65.46
-34.71
-1.30
30.22
56.46
75.84
88.40
95.10
97.13
95.49
90.96
84.32
76.53
68.66
61.70
56.27
52.52
50.07
48.33
46.76
45.17
43.71
42.74
42.53
42.95
43.41
42.91
40.42
35.26
27.28
17.02
5.43
-6.39
-17.51
-27.54
-36.52
-45.04
-53.97
-64.24
-76.56
-90.95
-106.38
-120.54
-130.19
-131.86
-123.03
-103.19
-74.20
-39.94
-5.13
25.93
50.41
67.20
76.57
79.49
77.20
70.88
61.79
51.21
40.39
30.35
21.70
14.67
9.22
5.29
2.89
2.18
3.24
5.91
9.70
13.76
17.02
18.42
17.25
13.32
7.06
-0.63
-8.70
-16.33
-23.19
-29.56
-36.21
-44.13
-54.07
-66.09
-79.06
-90.64
-97.63
-96.92
-86.56
-66.61
-39.36
-8.69
21.13
46.55
65.58
77.81
83.92
85.07
82.46
77.09
69.90
61.74
53.43
45.59
38.54
32.35
26.98
22.52
19.18
17.25
16.80
17.50
18.55
18.88
17.61
14.29
9.12
2.74
-4.07
-10.75
-17.10
-23.42
-30.27
-38.42
-48.51
-60.70
-74.22
-87.10
-96.33
-98.59
-91.37
-74.11
-48.62
-18.69
11.04
36.54
55.41
67.11
72.58
73.38
70.94
66.18
59.66
51.81
43.20
34.60
26.84
20.57
16.09
13.27
11.67
10.75
9.96
8.96
7.58
5.78
3.55
0.87
-2.36
-6.27
-11.02
-16.88
-24.21
-33.37
-44.54
-57.24
-70.02
-80.43
-85.52
-82.73
-70.95
-51.02
-25.68
1.26
26.09
46.14
60.24
68.51
71.83
71.24
67.59
61.55
53.72
44.74
35.39
26.42
18.46
11.94
6.95
3.35
0.80
-1.12
-2.77
-4.37
-6.00
-7.64
-9.28
-11.08
-13.38
-16.71
-21.66
-28.73
-38.26
-50.17
-63.79
-77.60
-89.25
-95.84
-94.74
-84.44
-65.28
-39.56
-10.94
16.57
39.71
56.66
67.02
71.50
71.26
67.51
61.30
53.52
44.92
36.18
27.82
20.29
13.93
9.00
5.65
3.90
3.45
3.79
4.24
4.13
3.07
0.93
-2.10
-5.75
-9.83
-14.36
-19.61
-25.99
-33.99
-43.95
-55.85
-68.95
-81.59
-91.24
-94.94
-90.23
-76.05
-53.39
-25.09
4.82
32.37
54.57
69.99
78.66
81.51
79.85
74.95
67.92
59.74
51.28
43.19
35.83
29.28
23.44
18.26
13.83
10.49
8.55
8.06
8.64
9.49
9.60
8.13
4.76
-0.33
-6.51
-13.05
-19.39
-25.31
-31.05
-37.17
-44.48
-53.70
-65.07
-77.85
-90.07
-98.79
-100.78
-93.65
-76.82
-51.95
-22.49
7.34
33.79
54.43
68.38
75.96
78.07
75.76
70.01
61.86
52.42
42.91
34.31
27.19
21.61
17.22
13.60
10.54
8.16
6.77
6.58
7.45
8.79
9.68
9.15
6.53
1.69
-4.91
-12.46
-19.97
-26.70
-32.35
-37.17
-41.95
-47.76
-55.51
-65.49
-76.81
-87.34
-94.00
-93.69
-84.32
-65.78
-40.15
-11.09
17.20
41.30
59.18
70.34
75.33
75.11
70.67
62.95
52.98
41.96
31.17
21.62
13.88
7.97
3.55
0.27
-1.99
-3.01
-2.53
-0.48
2.69
6.00
8.24
8.38
5.90
1.01
-5.47
-12.51
-19.21
-25.12
-30.35
-35.43
-41.21
-48.49
-57.72
-68.58
-79.72
-88.69
-92.45
-88.30
-74.87
-52.82
-24.88
4.86
32.22
54.00
68.66
76.24
77.79
74.69
68.19
59.24
48.66
37.31
26.04
15.71
6.97
0.25
-4.24
-6.45
-6.50
-4.74
-1.82
1.39
3.89
4.88
3.96
1.20
-2.98
-7.99
-13.42
-19.09
-25.20
-32.24
-40.80
-51.33
-63.65
-76.66
-88.14
-95.14
-94.73
-85.04
-66.05
-39.83
-10.03
19.14
44.07
62.48
73.69
78.31
77.68
73.35
66.67
58.68
50.13
41.56
33.37
25.86
19.26
13.75
9.43
6.44
4.87
4.71
5.69
7.17
8.18
7.76
5.17
0.31
-6.26
-13.61
-20.78
-27.19
-32.88
-38.46
-44.94
-53.27
-63.99
-76.66
-89.58
-99.89
-104.20
-99.61
-84.87
-61.00
-31.10
0.56
29.85
53.74
70.81
81.02
85.16
84.33
79.67
72.32
63.45
54.21
45.51
37.90
31.44
25.84
20.76
16.09
12.06
9.18
7.93
8.41
10.07
11.84
12.46
10.96
7.03
1.11
-5.91
-13.02
-19.59
-25.47
-31.12
-37.36
-45.11
-55.03
-67.06
-80.05
-91.62
-98.57
-97.68
-86.92
-66.32
-38.26
-6.80
23.55
49.12
67.92
79.63
85.08
85.50
82.01
75.55
66.98
57.32
47.67
38.95
31.69
26.01
21.58
18.01
15.04
12.65
11.07
10.58
11.29
12.92
14.77
15.80
14.96
11.55
5.50
-2.56
-11.51
-20.17
-27.69
-33.87
-39.15
-44.44
-50.88
-59.40
-70.29
-82.82
-95.02
-103.88
-106.13
-99.27
-82.49
-57.17
-26.61
4.99
33.72
56.89
73.35
83.22
87.27
86.43
81.51
73.28
62.67
50.90
39.29
29.06
20.93
14.97
10.74
7.65
5.33
3.86
3.63
5.00
7.86
11.47
14.56
15.81
14.33
10.00
3.44
-4.24
-11.93
-18.87
-24.84
-30.13
-35.43
-41.58
-49.37
-59.21
-70.81
-82.89
-93.18
-98.72
-96.72
-85.53
-65.33
-38.35
-8.22
21.05
46.18
65.22
77.61
83.80
84.63
81.07
74.08
64.69
54.04
43.22
33.09
24.14
16.51
10.14
5.01
1.29
-0.71
-0.80
0.95
4.01
7.37
9.82
10.29
8.23
3.71
-2.55
-9.50
-16.20
-22.09
-27.23
-32.25
-38.20
-46.08
-56.48
-68.92
-81.68
-91.89
-96.19
-91.81
-77.60
-54.57
-25.70
4.89
33.15
56.09
72.17
81.26
84.12
81.94
75.98
67.47
57.61
47.48
37.86
29.25
21.76
15.32
9.82
5.33
2.12
0.54
0.71
2.35
4.63
6.43
6.62
4.56
0.29
-5.54
-11.95
-18.01
-23.27
-27.82
-32.34
-37.80
-45.23
-55.27
-67.72
-81.17
-92.99
-99.74
-98.21
-86.56
-65.10
-36.46
-4.82
25.37
50.57
68.89
80.10
85.05
85.02
81.24
74.81
66.67
57.80
49.08
41.19
34.45
28.77
23.78
19.11
14.70
10.85
8.15
7.09
7.76
9.58
11.35
11.73
9.66
4.89
-2.05
-10.04
-17.90
-24.85
-30.74
-36.07
-41.75
-48.86
-58.21
-69.95
-83.15
-95.61
-104.16
-105.40
-96.92
-78.22
-51.20
-19.61
12.02
39.79
61.30
75.87
84.07
86.99
85.68
80.97
73.61
64.54
54.90
45.84
38.30
32.64
28.63
25.69
23.18
20.80
18.69
17.28
17.01
17.91
19.47
20.65
20.29
17.51
12.07
4.42
-4.43
-13.37
-21.53
-28.56
-34.69
-40.56
-47.05
-55.05
-65.18
-77.38
-90.65
-102.82
-110.85
-111.59
-102.80
-84.10
-57.31
-25.98
5.66
33.88
56.31
72.09
81.51
85.38
84.57
79.88
72.16
62.48
52.13
42.42
34.38
28.50
24.61
22.13
20.36
18.88
17.65
17.03
17.38
18.76
20.62
21.92
21.47
18.43
12.64
4.68
-4.32
-13.11
-20.76
-26.96
-32.02
-36.78
-42.33
-49.79
-59.80
-72.17
-85.52
-97.22
-103.96
-102.63
-91.44
-70.68
-42.80
-11.71
18.41
44.18
63.72
76.57
83.25
84.63
81.58
74.99
65.79
55.18
44.41
34.69
26.80
21.02
17.09
14.46
12.63
11.42
10.98
11.61
13.43
16.11
18.71
19.97
18.70
14.35
7.20
-1.69
-10.91
-19.26
-26.22
-32.04
-37.61
-44.12
-52.67
-63.83
-77.21
-91.22
-103.14
-109.61
-107.56
-95.29
-73.22
-43.96
-11.59
19.55
46.04
66.01
79.15
86.17
88.13
86.06
80.80
73.18
64.13
54.71
45.86
38.28
32.19
27.39
23.49
20.14
17.29
15.19
14.22
14.55
15.93
17.55
18.26
16.89
12.71
5.74
-3.21
-12.86
-21.91
-29.52
-35.63
-40.95
-46.68
-54.10
-64.07
-76.58
-90.37
-102.94
-110.97
-111.14
-101.28
-81.27
-53.25
-21.14
10.62
38.28
59.68
74.31
82.82
86.24
85.54
81.42
74.61
66.01
56.76
48.02
40.63
34.89
30.58
27.16
24.12
21.30
18.90
17.37
17.08
18.02
19.63
20.88
20.61
17.93
12.56
4.92
-3.97
-12.94
-21.04
-27.91
-33.79
-39.36
-45.53
-53.14
-62.73
-74.22
-86.61
-97.81
-104.84
-104.62
-94.97
-75.61
-48.46
-17.25
13.72
40.71
61.50
75.49
83.20
85.69
83.95
78.82
71.08
61.73
51.96
42.98
35.69
30.45
27.05
24.89
23.34
21.96
20.74
19.94
19.93
20.90
22.61
24.36
25.16
24.03
20.32
14.04
5.87
-3.09
-11.72
-19.29
-25.71
-31.52
-37.60
-44.84
-53.92
-64.98
-77.42
-89.74
-99.56
-104.03
-100.60
-87.95
-66.63
-39.12
-9.14
19.38
43.40
61.29
72.73
78.28
78.76
75.05
68.02
58.73
48.48
38.60
30.17
23.77
19.34
16.37
14.22
12.48
11.15
10.56
11.07
12.77
15.20
17.45
18.40
17.09
13.16
6.87
-0.91
-9.08
-16.69
-23.29
-29.02
-34.51
-40.68
-48.48
-58.40
-70.22
-82.63
-93.27
-99.18
-97.61
-86.94
-67.42
-41.28
-12.11
16.22
40.56
59.16
71.57
78.24
79.91
77.41
71.59
63.46
54.26
45.25
37.38
31.14
26.39
22.65
19.36
16.26
13.47
11.40
10.51
10.96
12.36
13.81
14.13
12.28
7.77
0.91
-7.30
-15.61
-22.98
-29.01
-34.10
-39.16
-45.41
-53.84
-64.95
-78.27
-92.22
-104.08
-110.58
-108.71
-96.86
-75.43
-47.01
-15.62
14.47
39.91
58.97
71.44
78.16
80.29
78.81
74.48
67.93
59.93
51.40
43.30
36.38
30.93
26.79
23.49
20.61
17.99
15.82
14.50
14.29
15.07
16.17
16.59
15.27
11.52
5.29
-2.82
-11.75
-20.33
-27.76
-33.82
-38.92
-43.95
-49.98
-57.94
-68.28
-80.56
-93.23
-103.63
-108.52
-104.97
-91.47
-68.63
-39.24
-7.46
22.37
46.99
64.81
75.85
81.12
81.91
79.30
74.04
66.77
58.23
49.34
41.11
34.36
29.47
26.28
24.25
22.70
21.17
19.58
18.26
17.63
17.88
18.67
19.20
18.41
15.45
10.00
2.47
-6.19
-14.82
-22.47
-28.75
-33.91
-38.64
-43.91
-50.65
-59.53
-70.66
-83.34
-95.78
-105.25
-108.62
-103.30
-88.22
-64.43
-34.88
-3.61
25.44
49.40
66.92
78.00
83.38
84.11
81.14
75.40
67.76
59.19
50.58
42.68
35.95
30.60
26.59
23.76
21.93
20.88
20.44
20.45
20.80
21.35
21.88
22.05
21.36
19.25
15.27
9.31
1.71
-6.80
-15.33
-23.11
-29.82
-35.59
-40.95
-46.62
-53.36
-61.83
-72.33
-84.48
-96.89
-107.13
-112.01
-108.64
-95.38
-72.71
-43.24
-11.04
19.61
45.36
64.45
76.60
82.56
83.38
80.15
73.80
65.27
55.59
45.85
37.02
29.83
24.61
21.32
19.66
19.18
19.44
20.06
20.79
21.46
21.96
22.10
21.61
20.12
17.20
12.52
6.03
-1.95
-10.77
-19.62
-27.81
-34.98
-41.18
-46.89
-52.83
-59.83
-68.59
-79.32
-91.40
-103.12
-111.78
-114.25
-107.91
-91.62
-66.37
-35.03
-1.57
30.03
56.84
77.27
90.98
98.27
99.77
96.19
88.44
77.75
65.64
53.71
43.27
35.14
29.48
25.94
23.89
22.68
21.83
21.17
20.76
20.83
21.39
22.15
22.34
20.96
17.07
10.28
0.92
-9.91
-20.83
-30.65
-38.79
-45.47
-51.59
-58.34
-66.75
-77.44
-90.22
-103.88
-116.20
-124.15
-124.57
-114.92
-94.33
-64.14
-27.86
9.59
43.26
69.41
86.38
94.54
95.55
91.52
84.14
74.59
63.72
52.45
41.90
33.17
26.91
22.98
20.61
18.85
17.14
15.56
14.74
15.25
17.17
19.70
21.47
20.98
17.30
10.44
1.37
-8.44
-17.54
-25.07
-31.08
-36.38
-42.33
-50.27
-61.07
-74.60
-89.40
-102.74
-111.11
-111.13
-100.71
-79.93
-51.12
-18.33
13.91
41.79
63.04
77.00
84.26
85.89
83.01
76.60
67.50
56.59
44.84
33.18
22.45
13.32
6.22
1.43
-0.98
-1.22
0.20
2.49
4.62
5.65
4.85
1.95
-2.84
-9.04
-16.04
-23.41
-31.07
-39.37
-49.01
-60.73
-74.80
-90.43
-105.46
-116.53
-119.87
-112.60
-93.80
-65.14
-30.48
5.23
37.39
62.80
80.21
89.95
93.31
91.82
86.81
79.32
70.14
60.03
49.69
39.80
30.96
23.61
18.04
14.31
12.27
11.45
11.23
10.88
9.78
7.47
3.77
-1.26
-7.44
-14.55
-22.45
-31.14
-40.90
-52.24
-65.68
-81.25
-97.87
-112.94
-122.70
-123.25
-111.92
-88.54
-55.78
-18.39
18.23
49.65
73.32
88.72
96.75
98.91
96.69
91.26
83.58
74.46
64.67
54.92
45.78
37.67
30.84
25.46
21.50
18.81
17.08
15.84
14.63
12.99
10.62
7.38
3.26
-1.69
-7.42
-14.00
-21.66
-30.88
-42.24
-56.05
-71.88
-88.01
-101.50
-108.67
-106.26
-92.67
-68.70
-37.45
-3.38
28.98
56.25
76.59
89.68
96.14
97.02
93.51
86.86
78.34
69.22
60.49
52.75
46.14
40.49
35.57
31.30
27.95
25.91
25.51
26.61
28.43
29.65
28.77
24.77
17.43
7.55
-3.48
-14.18
-23.63
-31.75
-39.30
-47.56
-57.84
-70.93
-86.61
-103.25
-117.84
-126.47
-125.33
-111.97
-86.48
-51.74
-12.72
25.01
56.89
80.45
95.46
103.15
105.25
103.21
97.97
90.24
80.86
71.00
61.99
54.87
50.08
47.30
45.69
44.35
42.73
40.86
39.24
38.43
38.60
39.27
39.24
37.11
31.83
23.16
11.86
-0.56
-12.44
-22.58
-30.67
-37.25
-43.52
-50.85
-60.34
-72.53
-87.00
-102.24
-115.63
-123.77
-123.42
-112.51
-91.00
-61.19
-27.13
6.54
35.91
58.65
74.21
83.19
86.68
85.70
81.00
73.36
63.78
53.62
44.32
37.05
32.36
30.03
29.31
29.31
29.41
29.45
29.65
30.23
31.16
31.94
31.69
29.50
24.75
17.41
8.08
-2.20
-12.27
-21.23
-28.71
-34.93
-40.66
-46.97
-54.90
-65.12
-77.56
-91.11
-103.53
-111.80
-112.77
-104.20
-85.57
-58.52
-26.52
6.10
35.39
58.67
74.91
84.40
88.20
87.46
83.23
76.46
68.10
59.25
50.98
44.12
39.13
35.96
34.20
33.23
32.51
31.69
30.67
29.58
28.57
27.67
26.64
24.90
21.79
16.74
9.57
0.68
-9.11
-18.81
-27.62
-35.19
-41.72
-47.79
-54.20
-61.77
-71.15
-82.60
-95.60
-108.58
-118.88
-123.27
-118.92
-104.43
-80.61
-50.32
-17.75
12.88
38.37
57.17
69.23
75.52
77.30
75.79
71.95
66.56
60.27
53.72
47.50
42.10
37.85
34.92
33.26
32.65
32.79
33.32
33.91
34.27
34.15
33.31
31.57
28.72
24.60
19.13
12.34
4.44
-4.13
-12.83
-21.15
-28.73
-35.48
-41.59
-47.45
-53.59
-60.58
-69.01
-79.09
-90.37
-101.39
-109.64
-112.13
-106.33
-91.19
-67.70
-38.79
-8.45
19.48
42.22
58.57
68.69
73.56
74.42
72.37
68.28
62.87
56.77
50.57
44.77
39.71
35.60
32.47
30.31
29.00
28.39
28.25
28.29
28.18
27.63
26.46
24.56
21.85
18.24
13.61
7.86
1.06
-6.49
-14.31
-21.87
-28.78
-34.89
-40.34
-45.51
-50.95
-57.25
-64.95
-74.19
-84.43
-94.21
-101.20
-102.75
-96.66
-82.11
-60.09
-33.31
-5.47
19.86
40.11
54.23
62.44
65.73
65.20
61.71
55.90
48.39
39.97
31.65
24.48
19.24
16.19
15.08
15.26
16.04
16.83
17.44
17.89
18.34
18.84
19.19
18.87
17.26
13.79
8.24
0.89
-7.53
-16.04
-23.72
-30.00
-34.83
-38.66
-42.27
-46.65
-52.67
-60.77
-70.75
-81.44
-90.77
-96.06
-94.81
-85.48
-68.12
-44.64
-18.18
7.64
29.84
46.62
57.52
63.08
64.21
61.78
56.53
49.17
40.53
31.69
23.78
17.68
13.79
11.91
11.48
11.80
12.38
13.02
13.82
14.91
16.17
17.18
17.21
15.46
11.37
4.89
-3.46
-12.69
-21.69
-29.54
-35.91
-41.04
-45.67
-50.81
-57.41
-66.01
-76.52
-87.90
-98.16
-104.59
-104.52
-96.08
-79.01
-54.92
-26.87
1.45
26.78
47.00
61.31
69.88
73.44
72.81
68.83
62.42
54.59
46.46
39.02
32.91
28.31
25.02
22.55
20.46
18.47
16.61
15.11
14.24
14.13
14.54
14.80
13.95
11.06
5.61
-2.25
-11.71
-21.62
-30.86
-38.74
-45.18
-50.67
-56.07
-62.40
-70.52
-80.76
-92.50
-103.97
-112.37
-114.51
-107.90
-91.63
-66.98
-37.04
-5.82
22.88
46.43
63.58
74.39
79.64
80.36
77.60
72.30
65.32
57.55
49.84
42.93
37.36
33.31
30.59
28.72
27.18
25.59
23.97
22.60
21.81
21.67
21.82
21.45
19.63
15.67
9.39
1.19
-8.07
-17.44
-26.14
-33.79
-40.42
-46.42
-52.42
-59.21
-67.57
-77.93
-89.90
-101.94
-111.33
-114.80
-109.55
-94.39
-70.40
-40.65
-9.34
19.54
43.23
60.60
71.90
78.14
80.42
79.57
76.13
70.60
63.57
55.84
48.33
41.83
36.88
33.56
31.62
30.63
30.15
29.87
29.70
29.61
29.53
29.22
28.29
26.26
22.68
17.33
10.31
2.07
-6.71
-15.25
-23.00
-29.74
-35.64
-41.18
-47.00
-53.78
-62.10
-72.18
-83.57
-94.88
-103.69
-107.03
-102.20
-87.87
-64.74
-35.52
-4.21
25.14
49.47
67.30
78.58
84.16
85.10
82.40
76.89
69.38
60.79
52.11
44.27
37.93
33.38
30.49
28.88
28.07
27.66
27.42
27.29
27.31
27.42
27.36
26.65
24.69
20.92
15.05
7.26
-1.86
-11.44
-20.63
-28.83
-35.85
-41.89
-47.44
-53.10
-59.49
-67.13
-76.20
-86.24
-95.89
-102.85
-104.35
-97.97
-82.60
-59.08
-30.10
0.48
28.78
51.86
68.28
77.92
81.54
80.20
74.96
66.83
56.90
46.38
36.44
28.06
21.75
17.52
14.98
13.60
12.96
12.89
13.49
14.91
17.13
19.74
21.97
22.75
21.16
16.71
9.59
0.65
-8.91
-17.95
-25.73
-32.17
-37.73
-43.31
-49.87
-58.24
-68.70
-80.63
-92.33
-101.15
-104.07
-98.60
-83.77
-60.59
-31.92
-1.59
26.62
49.92
66.94
77.53
82.30
82.10
77.81
70.33
60.72
50.22
40.10
31.41
24.70
19.94
16.68
14.34
12.52
11.18
10.54
10.90
12.29
14.34
16.23
16.91
15.45
11.32
4.65
-3.83
-12.99
-21.67
-29.19
-35.48
-41.22
-47.55
-55.70
-66.48
-79.73
-94.06
-106.89
-114.98
-115.25
-105.81
-86.66
-59.83
-28.82
2.34
30.21
52.52
68.37
77.93
81.92
81.32
77.18
70.55
62.53
54.17
46.38
39.76
34.59
30.80
28.08
26.05
24.45
23.21
22.53
22.64
23.59
24.97
25.92
25.32
22.24
16.30
7.93
-1.88
-11.83
-20.89
-28.53
-34.88
-40.60
-46.63
-54.00
-63.45
-75.14
-88.22
-100.69
-109.59
-111.75
-104.76
-87.95
-62.82
-32.65
-1.50
26.88
50.03
66.97
77.86
83.52
84.84
82.61
77.57
70.54
62.49
54.45
47.30
41.59
37.41
34.45
32.27
30.39
28.65
27.14
26.09
25.69
25.89
26.24
25.97
24.27
20.49
14.46
6.53
-2.49
-11.66
-20.16
-27.53
-33.83
-39.54
-45.46
-52.50
-61.37
-72.31
-84.69
-96.84
-106.10
-109.47
-104.42
-89.88
-66.79
-37.95
-7.29
21.29
44.89
62.10
72.91
78.19
79.10
76.70
71.88
65.38
57.98
50.44
43.53
37.84
33.67
31.07
29.77
29.38
29.44
29.60
29.66
29.60
29.45
29.19
28.66
27.44
25.05
21.03
15.19
7.73
-0.82
-9.72
-18.30
-26.09
-32.97
-39.12
-44.93
-50.96
-57.85
-66.18
-76.10
-86.92
-96.81
-103.06
-102.70
-93.61
-75.41
-49.85
-20.35
9.01
34.74
54.70
68.28
75.90
78.44
76.75
71.53
63.51
53.72
43.41
33.91
26.30
21.08
18.21
17.14
17.20
17.82
18.72
19.84
21.30
23.10
24.94
26.23
26.14
23.92
19.16
12.01
3.22
-6.16
-15.08
-22.80
-29.11
-34.32
-39.08
-44.27
-50.74
-59.14
-69.44
-80.65
-90.72
-96.78
-96.01
-86.58
-68.41
-43.38
-14.80
13.63
38.73
58.52
72.24
80.01
82.40
80.12
73.97
64.93
54.25
43.39
33.68
26.06
20.80
17.56
15.64
14.37
13.38
12.73
12.70
13.50
14.98
16.47
16.98
15.49
11.38
4.70
-3.84
-13.09
-21.93
-29.61
-36.09
-41.94
-48.19
-55.93
-65.89
-78.04
-91.17
-103.02
-110.53
-110.70
-101.54
-82.89
-56.63
-26.23
4.21
31.17
52.34
66.90
75.19
78.15
76.90
72.51
66.03
58.46
50.74
43.65
37.64
32.75
28.74
25.21
21.97
19.08
16.96
16.03
16.50
18.03
19.77
20.54
19.27
15.38
9.01
0.92
-7.80
-16.15
-23.62
-30.30
-36.86
-44.27
-53.47
-64.93
-78.19
-91.67
-102.75
-108.32
-105.66
-93.36
-71.99
-44.02
-13.27
16.23
41.28
60.08
72.32
78.69
80.32
78.32
73.67
67.25
59.99
52.78
46.42
41.36
37.57
34.66
32.09
29.53
27.05
25.03
23.96
24.03
24.90
25.67
25.19
22.47
17.07
9.27
-0.03
-9.70
-18.69
-26.41
-32.83
-38.48
-44.29
-51.28
-60.28
-71.50
-84.12
-96.22
-104.94
-107.27
-100.91
-85.15
-61.29
-32.26
-1.91
26.10
49.07
65.60
75.55
79.57
78.70
74.10
66.97
58.45
49.62
41.37
34.30
28.65
24.33
21.04
18.42
16.31
14.82
14.17
14.53
15.76
17.19
17.81
16.61
12.95
6.93
-0.68
-8.72
-16.12
-22.34
-27.55
-32.55
-38.46
-46.32
-56.64
-68.98
-81.85
-92.70
-98.53
-96.68
-85.67
-65.87
-39.53
-10.19
18.25
42.53
60.65
72.00
77.01
76.70
72.26
64.84
55.57
45.51
35.66
26.79
19.34
13.50
9.24
6.55
5.38
5.69
7.25
9.51
11.67
12.83
12.28
9.65
5.04
-1.10
-8.14
-15.48
-22.68
-29.64
-36.64
-44.27
-53.31
-64.29
-76.93
-89.82
-100.28
-105.06
-101.22
-87.34
-64.22
-34.82
-3.40
25.70
49.25
65.71
75.10
78.50
77.26
72.60
65.47
56.69
47.01
37.30
28.34
20.79
15.06
11.24
9.27
8.90
9.77
11.35
12.96
13.85
13.27
10.78
6.24
-0.02
-7.37
-15.11
-22.74
-30.20
-37.97
-46.93
-57.87
-70.90
-84.89
-97.39
-105.08
-104.72
-94.34
-74.05
-46.18
-14.62
16.28
42.92
63.07
76.09
82.51
83.53
80.55
74.89
67.69
59.83
51.94
44.40
37.36
30.96
25.35
20.84
17.73
16.17
15.99
16.64
17.30
17.16
15.57
12.21
7.16
0.77
-6.43
-13.96
-21.48
-28.99
-36.89
-45.93
-56.86
-69.84
-83.88
-96.58
-104.53
-104.35
-93.93
-73.40
-45.25
-13.58
17.17
43.48
63.43
76.73
84.13
86.77
85.72
81.85
75.91
68.76
61.29
54.38
48.65
44.30
41.07
38.44
35.89
33.19
30.50
28.26
26.89
26.39
26.27
25.57
23.28
18.69
11.67
2.77
-7.01
-16.57
-25.12
-32.39
-38.72
-44.90
-51.95
-60.85
-72.12
-85.43
-99.30
-111.09
-117.51
-115.52
-103.41
-81.54
-52.44
-20.09
11.20
37.97
58.29
71.77
79.18
81.82
80.98
77.80
73.14
67.73
62.12
56.72
51.79
47.53
44.10
41.62
40.20
39.84
40.35
41.39
42.47
43.10
42.87
41.50
38.88
35.05
30.05
23.94
16.76
8.59
-0.44
-10.10
-20.00
-29.71
-38.71
-46.66
-53.46
-59.39
-65.15
-71.68
-79.87
-90.02
-101.36
-111.89
-118.60
-118.31
-108.76
-89.48
-62.19
-30.26
2.17
31.42
54.99
71.90
82.35
87.21
87.55
84.43
78.85
71.81
64.34
57.30
51.32
46.65
43.25
40.84
39.16
38.07
37.55
37.63
38.22
38.96
39.24
38.42
36.05
32.11
27.00
21.39
15.87
10.67
5.57
0.05
-6.38
-13.83
-21.98
-30.17
-37.69
-44.12
-49.41
-53.99
-58.60
-64.16
-71.44
-80.63
-90.99
-100.63
-106.73
-106.29
-97.11
-78.73
-52.86
-22.91
6.92
32.92
52.75
65.70
72.36
73.98
71.89
67.20
60.72
53.21
45.42
38.14
32.05
27.63
25.06
24.20
24.71
26.14
28.04
30.00
31.70
32.91
33.43
33.13
31.88
29.50
25.83
20.74
14.22
6.51
-1.96
-10.54
-18.63
-25.80
-31.96
-37.38
-42.60
-48.35
-55.33
-63.95
-74.07
-84.64
-93.69
-98.61
-96.88
-86.94
-68.90
-44.67
-17.47
9.13
32.17
49.89
61.78
68.15
69.72
67.26
61.63
53.73
44.66
35.47
27.05
19.92
14.21
9.76
6.34
3.86
2.35
1.97
2.80
4.63
6.92
8.72
9.00
6.87
2.09
-4.94
-13.17
-21.33
-28.40
-33.92
-38.15
-41.91
-46.36
-52.56
-61.05
-71.44
-82.18
-90.69
-93.93
-89.38
-75.93
-54.53
-27.93
0.09
25.77
46.39
60.58
68.29
70.27
67.67
61.67
53.46
44.07
34.46
25.33
17.15
10.18
4.63
0.66
-1.53
-1.89
-0.60
1.78
4.44
6.54
7.38
6.62
4.25
0.53
-4.19
-9.64
-15.64
-22.14
-29.28
-37.42
-47.01
-58.33
-70.96
-83.46
-93.27
-97.37
-93.15
-79.55
-57.54
-30.05
-1.04
25.60
46.99
61.81
70.14
72.96
71.64
67.48
61.51
54.45
46.79
38.88
31.05
23.67
17.11
11.74
7.75
5.19
3.87
3.43
3.34
2.94
1.59
-1.20
-5.57
-11.27
-17.77
-24.50
-31.08
-37.60
-44.61
-52.90
-63.13
-75.18
-87.81
-98.54
-104.21
-101.92
-90.05
-69.03
-41.35
-10.83
18.42
43.18
61.60
73.24
78.64
78.84
75.13
68.90
61.58
54.39
48.12
42.97
38.56
34.32
29.82
25.17
20.90
17.75
16.19
16.18
17.03
17.62
16.79
13.74
8.25
0.76
-7.89
-16.77
-25.21
-33.06
-40.68
-48.86
-58.49
-70.19
-83.77
-97.92
-110.11
-117.01
-115.47
-103.58
-81.56
-51.93
-18.91
12.92
39.85
59.86
72.73
79.50
81.65
80.52
77.02
71.79
65.43
58.67
52.27
46.79
42.36
38.66
35.19
31.62
28.02
24.94
23.00
22.49
23.02
23.63
23.02
20.15
14.61
6.74
-2.52
-12.03
-20.85
-28.50
-35.10
-41.33
-48.21
-56.81
-67.90
-81.39
-95.93
-108.87
-116.73
-116.15
-105.11
-83.81
-54.85
-22.40
9.02
35.90
56.43
70.47
78.86
82.72
82.95
80.18
75.06
68.45
61.41
55.02
49.95
46.34
43.84
41.88
39.97
37.98
36.10
34.72
34.13
34.27
34.66
34.42
32.62
28.56
22.02
13.40
3.57
-6.45
-15.73
-23.77
-30.52
-36.41
-42.25
-48.95
-57.42
-68.16
-80.93
-94.37
-106.05
-112.82
-111.69
-100.83
-80.33
-52.42
-20.90
9.91
36.42
56.51
69.76
76.95
79.34
78.04
73.88
67.47
59.61
51.28
43.61
37.44
33.16
30.58
29.22
28.54
28.22
28.15
28.41
29.00
29.79
30.39
30.17
28.43
24.56
18.31
9.96
0.33
-9.41
-18.19
-25.37
-31.02
-35.82
-40.89
-47.34
-55.92
-66.61
-78.37
-89.12
-96.11
-96.59
-88.67
-72.00
-48.09
-19.89
8.92
34.87
55.40
69.22
76.22
77.10
73.06
65.51
55.88
45.51
35.56
26.86
19.89
14.75
11.35
9.47
8.89
9.43
10.87
12.90
15.04
16.71
17.23
16.03
12.82
7.60
0.85
-6.66
-14.10
-20.85
-26.79
-32.32
-38.34
-45.80
-55.32
-66.68
-78.54
-88.55
-93.82
-91.74
-80.89
-61.66
-36.23
-8.01
19.26
42.46
59.71
70.39
74.95
74.44
70.10
63.14
54.68
45.61
36.64
28.28
20.92
14.87
10.39
7.68
6.80
7.57
9.52
11.93
13.93
14.73
13.75
10.80
6.06
0.03
-6.69
-13.58
-20.45
-27.48
-35.29
-44.59
-55.83
-68.61
-81.37
-91.50
-95.85
-91.80
-78.20
-55.96
-27.98
1.70
29.02
50.95
66.09
74.54
77.38
76.09
72.02
66.21
59.42
52.18
44.90
37.84
31.26
25.37
20.41
16.62
14.16
13.01
12.84
13.06
12.94
11.83
9.39
5.54
0.49
-5.35
-11.58
-17.85
-24.06
-30.44
-37.59
-46.28
-56.93
-69.13
-81.19
-90.32
-93.30
-87.60
-72.44
-49.23
-21.20
7.61
33.48
53.95
68.01
75.87
78.47
76.99
72.57
66.29
59.10
51.80
44.98
38.97
33.91
29.72
26.25
23.39
21.11
19.48
18.55
18.24
18.16
17.66
15.93
12.30
6.61
-0.77
-8.97
-17.07
-24.41
-30.90
-36.98
-43.51
-51.46
-61.49
-73.54
-86.46
-97.94
-104.92
-104.42
-94.64
-75.70
-49.86
-20.82
7.40
31.64
50.26
63.10
70.90
74.62
75.00
72.46
67.38
60.38
52.48
44.89
38.68
34.35
31.74
30.19
28.88
27.33
25.51
23.79
22.58
22.05
21.88
21.36
19.66
16.14
10.52
3.07
-5.52
-14.31
-22.41
-29.28
-34.86
-39.63
-44.40
-50.15
-57.68
-67.32
-78.64
-90.17
-99.46
-103.59
-99.91
-87.08
-65.71
-38.35
-8.85
18.79
41.52
57.85
67.78
72.32
72.74
70.20
65.58
59.59
52.96
46.44
40.69
36.07
32.60
30.04
28.03
26.37
24.98
23.82
22.86
22.04
21.23
20.36
19.32
17.84
15.40
11.42
5.52
-2.12
-10.75
-19.22
-26.56
-32.35
-36.92
-41.05
-45.72
-51.70
-59.43
-68.90
-79.45
-89.59
-96.97
-98.79
-92.72
-77.90
-55.50
-28.52
-0.82
24.11
44.09
58.43
67.48
71.96
72.50
69.52
63.56
55.52
46.58
38.02
30.84
25.55
22.18
20.45
19.83
19.82
19.97
20.00
19.82
19.56
19.43
19.50
19.53
18.88
16.72
12.38
5.74
-2.64
-11.65
-20.08
-27.10
-32.51
-36.75
-40.66
-45.09
-50.74
-57.95
-66.63
-76.12
-84.94
-90.83
-91.16
-83.76
-67.91
-44.92
-17.92
9.12
32.64
50.51
62.22
68.38
69.89
67.48
61.62
52.95
42.62
32.15
23.14
16.52
12.44
10.25
9.03
8.08
7.25
6.83
7.24
8.70
10.92
13.21
14.63
14.26
11.55
6.42
-0.68
-8.87
-17.05
-24.27
-30.01
-34.40
-38.18
-42.51
-48.58
-57.09
-67.81
-79.28
-88.97
-93.82
-91.21
-79.82
-60.25
-34.92
-7.36
18.80
40.77
57.04
67.22
71.68
71.14
66.49
58.77
49.25
39.27
29.98
22.09
15.73
10.61
6.34
2.79
0.17
-1.04
-0.43
1.96
5.43
8.78
10.58
9.75
6.02
-0.10
-7.49
-14.99
-21.75
-27.64
-33.09
-38.96
-46.20
-55.48
-66.77
-79.02
-90.05
-96.88
-96.55
-87.05
-68.32
-42.37
-12.84
16.09
40.89
59.46
71.19
76.64
76.93
73.30
66.93
58.90
50.16
41.47
33.36
26.12
19.83
14.57
10.50
7.74
6.37
6.23
6.85
7.52
7.46
6.07
3.08
-1.43
-7.02
-13.12
-19.32
-25.51
-32.00
-39.41
-48.43
-59.47
-72.16
-85.09
-95.86
-101.54
-99.51
-88.39
-68.60
-42.46
-13.49
14.51
38.52
56.80
68.89
75.30
76.96
74.96
70.30
63.99
56.91
49.73
42.82
36.34
30.36
24.95
20.32
16.79
14.68
14.01
14.49
15.42
15.88
14.91
11.87
6.69
-0.16
-7.77
-15.24
-21.98
-28.08
-34.17
-41.23
-50.22
-61.62
-75.01
-88.82
-100.37
-106.44
-104.08
-91.73
-69.93
-41.40
-10.16
19.55
44.49
62.96
74.71
80.39
81.02
77.74
71.75
64.32
56.70
49.80
43.98
39.02
34.40
29.65
24.75
20.13
16.54
14.62
14.45
15.54
16.87
17.21
15.60
11.74
5.97
-0.91
-7.99
-14.68
-20.86
-26.93
-33.60
-41.71
-51.90
-64.20
-77.68
-90.32
-99.22
-101.28
-94.32
-77.83
-53.45
-24.45
5.09
31.56
52.52
67.01
75.24
78.09
76.63
71.94
65.06
57.03
48.85
41.36
35.11
30.23
26.54
23.68
21.36
19.57
18.48
18.34
19.12
20.34
21.09
20.38
17.53
12.42
5.62
-1.93
-9.31
-15.96
-21.89
-27.55
-33.82
-41.56
-51.42
-63.30
-76.15
-87.79
-95.25
-95.57
-86.80
-68.82
-43.60
-14.67
13.98
38.95
58.24
71.24
78.36
80.38
78.03
72.06
63.34
53.04
42.55
33.13
25.64
20.25
16.66
14.33
12.89
12.26
12.56
13.81
15.73
17.64
18.66
17.99
15.16
10.23
3.70
-3.70
-11.19
-18.19
-24.52
-30.48
-36.80
-44.52
-54.45
-66.60
-79.74
-91.37
-98.20
-97.22
-86.79
-67.31
-41.21
-12.24
15.72
39.64
57.85
69.91
76.22
77.49
74.57
68.42
60.24
51.33
42.89
35.68
29.91
25.36
21.64
18.59
16.30
15.03
14.96
15.91
17.31
18.36
18.18
16.19
12.17
6.33
-0.77
-8.35
-15.72
-22.43
-28.52
-34.54
-41.49
-50.33
-61.58
-74.65
-87.67
-97.66
-101.31
-96.07
-81.08
-57.65
-28.96
0.86
27.93
49.63
64.89
73.99
77.92
77.79
74.49
68.79
61.44
53.33
45.45
38.57
33.08
28.93
25.71
23.02
20.68
18.83
17.80
17.81
18.69
19.82
20.20
18.80
14.95
8.66
0.62
-8.03
-16.14
-23.01
-28.65
-33.74
-39.37
-46.67
-56.36
-68.42
-81.78
-94.35
-103.27
-105.52
-98.89
-82.80
-58.63
-29.55
0.43
27.60
49.43
64.91
74.30
78.52
78.62
75.52
70.06
63.10
55.60
48.52
42.59
38.13
35.00
32.73
30.78
28.79
26.71
24.81
23.48
22.95
23.10
23.38
22.93
20.88
16.64
10.21
2.12
-6.68
-15.17
-22.65
-28.96
-34.50
-40.05
-46.49
-54.52
-64.41
-75.82
-87.61
-97.79
-103.77
-102.91
-93.45
-75.21
-49.96
-21.03
7.62
32.55
51.63
64.32
71.25
73.57
72.43
68.68
63.00
56.05
48.56
41.37
35.26
30.72
27.93
26.63
26.34
26.55
26.85
27.10
27.29
27.52
27.74
27.73
27.01
25.10
21.56
16.25
9.36
1.37
-7.10
-15.46
-23.29
-30.39
-36.76
-42.63
-48.35
-54.48
-61.59
-70.07
-79.67
-89.20
-96.44
-98.63
-93.34
-79.50
-57.93
-31.29
-3.34
22.29
42.96
57.54
66.12
69.56
68.86
64.92
58.49
50.37
41.48
32.82
25.32
19.64
15.98
14.18
13.79
14.26
15.17
16.26
17.48
18.82
20.18
21.28
21.65
20.69
17.90
13.10
6.57
-1.05
-8.87
-16.08
-22.27
-27.46
-32.10
-36.86
-42.46
-49.48
-58.23
-68.48
-79.20
-88.51
-93.83
-92.54
-82.94
-64.95
-40.43
-12.69
14.42
37.70
55.29
66.74
72.65
73.99
71.66
66.34
58.72
49.62
40.12
31.36
24.27
19.35
16.44
15.05
14.50
14.33
14.39
14.77
15.64
16.98
18.43
19.37
19.05
16.83
12.34
5.68
-2.68
-11.89
-21.00
-29.15
-35.95
-41.51
-46.53
-52.10
-59.35
-68.97
-80.80
-93.54
-104.72
-111.26
-110.26
-100.00
-80.66
-54.37
-24.61
4.74
30.43
50.47
64.18
71.85
74.36
72.76
68.18
61.68
54.29
46.86
40.04
34.17
29.44
25.82
23.23
21.49
20.39
19.71
19.32
19.18
19.33
19.74
20.22
20.27
19.23
16.40
11.40
4.35
-4.10
-13.00
-21.39
-28.70
-34.83
-40.12
-45.21
-50.85
-57.77
-66.51
-77.15
-88.93
-100.01
-107.60
-108.61
-100.69
-83.15
-57.52
-27.23
3.51
30.84
52.33
67.13
75.72
79.21
78.74
75.28
69.59
62.38
54.44
46.55
39.37
33.32
28.57
25.07
22.70
21.26
20.60
20.57
21.02
21.83
22.80
23.62
23.80
22.79
20.08
15.38
8.79
0.82
-7.77
-16.18
-23.81
-30.44
-36.20
-41.57
-47.21
-53.88
-62.25
-72.55
-84.23
-95.71
-104.41
-107.26
-101.70
-86.60
-62.90
-33.47
-2.36
26.41
49.91
66.75
76.92
81.22
80.68
76.21
68.62
58.87
48.15
37.73
28.76
21.94
17.34
14.56
12.97
12.04
11.58
11.73
12.81
15.02
18.10
21.25
23.30
23.08
19.89
13.77
5.48
-3.78
-12.85
-20.93
-27.79
-33.70
-39.34
-45.57
-53.29
-63.08
-74.81
-87.21
-97.90
-103.72
-101.74
-90.28
-69.71
-42.45
-12.28
16.80
41.57
60.28
72.46
78.58
79.44
75.89
68.78
59.17
48.30
37.53
27.99
20.34
14.66
10.53
7.48
5.28
4.05
4.15
5.80
8.76
12.16
14.75
15.30
13.08
8.12
1.17
-6.66
-14.36
-21.37
-27.68
-33.77
-40.46
-48.64
-58.90
-71.16
-84.25
-95.83
-102.73
-101.84
-91.19
-70.86
-43.11
-11.86
18.57
44.60
64.16
76.73
82.92
83.87
80.74
74.60
66.43
57.18
47.73
38.80
30.82
23.97
18.30
13.91
10.95
9.67
10.12
12.00
14.58
16.79
17.54
16.04
12.10
6.10
-1.10
-8.61
-15.72
-22.26
-28.60
-35.59
-44.28
-55.51
-69.22
-84.15
-97.62
-106.05
-106.03
-95.49
-74.61
-45.94
-13.65
17.73
44.54
64.73
77.80
84.43
85.77
83.07
77.48
70.13
62.08
54.24
47.14
40.94
35.44
30.35
25.55
21.21
17.79
15.75
15.26
15.97
17.00
17.18
15.45
11.27
4.75
-3.32
-11.87
-19.94
-27.04
-33.29
-39.40
-46.48
-55.65
-67.51
-81.71
-96.40
-108.44
-114.05
-109.97
-94.79
-69.62
-37.94
-4.49
26.18
50.96
68.56
79.26
84.10
84.26
80.73
74.38
66.10
56.86
47.57
38.92
31.21
24.51
18.81
14.20
10.90
9.13
8.88
9.73
10.84
11.21
9.95
6.66
1.44
-5.15
-12.40
-19.71
-26.84
-33.99
-41.75
-50.89
-62.03
-75.09
-88.93
-101.20
-108.73
-108.34
-97.96
-77.38
-48.57
-15.12
18.66
48.93
73.01
89.66
98.89
101.57
98.92
92.34
83.16
72.57
61.58
50.92
41.08
32.46
25.40
20.24
17.25
16.50
17.59
19.62
21.31
21.40
19.04
14.05
6.98
-1.25
-9.70
-17.88
-25.75
-33.84
-42.91
-53.76
-66.93
-82.22
-98.24
-112.17
-120.12
-118.20
-104.13
-78.33
-44.28
-7.45
26.60
53.84
72.78
84.05
89.37
90.32
87.83
82.35
74.35
64.78
54.89
45.88
38.37
32.39
27.59
23.66
20.60
18.60
17.90
18.32
19.21
19.56
18.37
15.08
9.67
2.72
-5.01
-12.84
-20.53
-28.31
-36.91
-47.23
-59.92
-74.76
-90.26
-103.55
-111.02
-109.41
-96.95
-74.22
-44.13
-11.03
20.51
46.96
66.39
78.48
83.98
84.11
80.20
73.49
65.16
56.25
47.63
39.88
33.24
27.71
23.26
19.92
17.81
17.04
17.47
18.63
19.73
19.86
18.26
14.58
8.97
1.95
-5.77
-13.55
-21.06
-28.44
-36.28
-45.52
-57.00
-70.91
-86.20
-100.34
-109.74
-110.75
-100.95
-80.19
-50.77
-16.90
16.63
45.67
67.68
81.81
88.63
89.44
85.77
79.02
70.40
60.91
51.31
42.18
33.82
26.46
20.24
15.40
12.13
10.54
10.44
11.27
12.19
12.26
10.75
7.36
2.28
-3.95
-10.69
-17.44
-24.07
-30.84
-38.44
-47.69
-59.28
-73.15
-88.06
-101.39
-109.59
-109.16
-97.96
-76.05
-46.00
-12.12
20.76
48.72
69.49
82.60
88.82
89.52
86.07
79.67
71.30
61.84
52.06
42.60
33.93
26.39
20.18
15.53
12.60
11.41
11.75
13.06
14.54
15.33
14.73
12.33
8.18
2.64
-3.74
-10.43
-17.16
-24.03
-31.57
-40.61
-51.91
-65.60
-80.66
-94.68
-104.16
-105.53
-96.30
-76.22
-47.49
-14.25
18.71
47.30
68.99
83.03
90.01
91.16
87.86
81.36
72.85
63.42
54.05
45.44
37.96
31.61
26.25
21.74
18.16
15.71
14.54
14.50
15.01
15.16
13.98
10.86
5.70
-0.99
-8.50
-16.10
-23.41
-30.51
-37.88
-46.25
-56.33
-68.40
-81.84
-94.84
-104.46
-107.32
-100.68
-83.53
-57.20
-25.20
7.89
37.72
61.25
77.25
86.03
88.82
87.04
81.97
74.68
66.09
57.10
48.46
40.73
34.18
28.83
24.61
21.45
19.41
18.58
18.89
19.97
21.06
21.18
19.41
15.24
8.71
0.47
-8.56
-17.45
-25.68
-33.31
-40.92
-49.47
-59.83
-72.34
-86.34
-99.91
-110.00
-113.20
-106.79
-89.84
-63.73
-31.96
0.92
30.63
54.24
70.58
79.94
83.40
82.17
77.34
69.89
60.87
51.45
42.68
35.27
29.39
24.78
20.97
17.73
15.15
13.66
13.62
15.07
17.39
19.44
19.87
17.67
12.51
4.90
-4.02
-12.97
-20.97
-27.76
-33.87
-40.35
-48.46
-59.03
-72.02
-86.11
-98.75
-106.58
-106.37
-96.10
-75.75
-47.51
-15.27
16.52
43.99
64.70
77.83
83.85
83.95
79.53
72.01
62.64
52.57
42.78
33.93
26.39
20.27
15.50
11.96
9.65
8.55
8.71
9.96
11.81
13.49
13.99
12.46
8.44
2.09
-5.86
-14.38
-22.53
-29.81
-36.31
-42.72
-50.08
-59.38
-71.03
-84.35
-97.26
-106.58
-108.81
-101.30
-83.36
-56.69
-24.98
7.23
35.86
58.19
73.20
81.19
83.18
80.40
74.04
65.29
55.35
45.44
36.54
29.24
23.60
19.36
16.10
13.55
11.73
10.87
11.19
12.61
14.53
15.94
15.66
12.81
7.17
-0.71
-9.69
-18.55
-26.39
-33.05
-38.98
-45.14
-52.60
-62.16
-73.93
-86.97
-99.19
-107.50
-108.63
-100.15
-81.50
-54.41
-22.61
9.37
37.45
59.01
73.21
80.60
82.36
79.72
73.71
65.28
55.42
45.25
35.80
27.79
21.48
16.66
12.93
9.96
7.76
6.56
6.61
7.88
9.82
11.48
11.77
9.86
5.49
-0.98
-8.70
-16.65
-24.07
-30.63
-36.65
-42.93
-50.55
-60.44
-72.76
-86.48
-99.21
-107.58
-108.18
-98.78
-79.28
-51.84
-20.37
10.74
37.84
58.80
73.06
81.13
83.91
82.30
77.04
68.98
59.22
49.09
39.79
32.19
26.50
22.40
19.30
16.77
14.75
13.55
13.55
14.79
16.79
18.52
18.76
16.56
11.56
4.12
-4.84
-14.14
-22.81
-30.33
-36.77
-42.82
-49.50
-57.88
-68.60
-81.36
-94.60
-105.55
-110.84
-107.55
-94.26
-71.68
-42.56
-10.93
19.17
44.56
63.56
75.78
81.76
82.47
78.97
72.37
63.86
54.63
45.74
37.93
31.51
26.42
22.40
19.19
16.68
14.96
14.20
14.42
15.32
16.25
16.27
14.49
10.34
3.79
-4.54
-13.59
-22.26
-29.73
-35.81
-41.01
-46.39
-53.23
-62.47
-74.16
-87.08
-98.70
-105.72
-104.94
-94.46
-74.37
-46.94
-16.02
14.08
39.77
58.86
70.81
76.21
76.30
72.42
65.82
57.68
49.07
40.96
34.02
28.54
24.44
21.40
19.16
17.62
16.95
17.32
18.72
20.73
22.53
23.07
21.41
17.05
10.09
1.24
-8.48
-17.99
-26.61
-34.18
-41.17
-48.51
-57.20
-67.89
-80.23
-92.65
-102.42
-106.32
-101.62
-87.14
-63.85
-34.70
-3.76
24.97
48.56
65.63
76.19
81.01
81.12
77.48
70.96
62.53
53.30
44.38
36.64
30.48
25.79
22.13
19.08
16.47
14.50
13.46
13.47
14.18
14.77
14.13
11.34
6.03
-1.45
-10.12
-18.86
-26.74
-33.39
-39.14
-44.86
-51.63
-60.39
-71.42
-83.96
-96.04
-104.78
-107.00
-100.30
-83.97
-59.38
-29.76
0.81
28.50
50.65
66.16
75.20
78.66
77.66
73.20
66.24
57.77
48.83
40.44
33.37
27.96
24.09
21.32
19.20
17.46
16.16
15.54
15.78
16.76
17.86
18.11
16.51
12.45
6.03
-1.99
-10.46
-18.30
-24.94
-30.50
-35.76
-41.84
-49.83
-60.31
-72.97
-86.31
-97.72
-103.99
-102.21
-90.82
-70.25
-43.04
-13.04
15.65
39.82
57.75
69.18
74.79
75.64
72.71
66.84
58.89
49.86
40.88
33.03
26.98
22.94
20.58
19.32
18.65
18.40
18.72
19.84
21.75
23.92
25.41
25.03
21.95
15.98
7.69
-1.76
-11.14
-19.54
-26.66
-32.83
-38.87
-45.79
-54.40
-65.02
-77.05
-88.78
-97.56
-100.37
-94.77
-79.85
-56.75
-28.46
1.06
27.99
49.65
64.82
73.56
76.69
75.21
70.12
62.47
53.40
44.18
35.95
29.47
24.94
22.01
20.13
18.84
18.01
17.83
18.56
20.18
22.18
23.56
23.18
20.17
14.35
6.30
-2.90
-12.01
-20.12
-26.99
-33.04
-39.26
-46.79
-56.51
-68.55
-81.97
-94.60
-103.42
-105.35
-98.22
-81.61
-57.18
-28.24
1.22
27.59
48.49
62.96
71.24
74.20
72.82
68.07
60.89
52.35
43.67
35.94
29.89
25.65
22.84
20.80
19.00
17.30
15.97
15.45
16.02
17.50
19.25
20.26
19.57
16.58
11.37
4.61
-2.60
-9.17
-14.47
-18.53
-22.11
-26.43
-32.76
-41.82
-53.36
-65.76
-76.23
-81.47
-78.68
-66.63
-46.27
-20.48
6.80
31.88
52.35
67.39
77.37
83.18
85.59
85.02
81.75
76.31
69.58
62.74
56.81
52.34
49.24
46.97
44.80
42.26
39.30
36.23
33.54
31.56
30.24
29.11
27.37
24.20
19.13
12.14
3.77
-5.12
-13.68
-21.32
-27.95
-33.95
-40.03
-46.98
-55.48
-65.72
-77.05
-87.88
-95.78
-98.06
-92.68
-79.02
-58.33
-33.42
-7.88
15.06
33.26
45.98
53.57
56.91
56.92
54.30
49.68
43.76
37.40
31.45
26.58
23.09
20.82
19.39
18.43
17.79
17.54
17.84
18.70
19.78
20.41
19.76
17.11
12.19
5.29
-2.76
-10.88
-18.08
-23.89
-28.47
-32.64
-37.54
-44.22
-53.25
-64.26
-75.81
-85.52
-90.61
-88.63
-78.31
-60.16
-36.45
-10.59
13.76
33.72
47.71
55.57
58.08
56.53
52.24
46.38
39.93
33.64
28.05
23.41
19.71
16.74
14.25
12.14
10.49
9.51
9.38
10.02
11.00
11.59
10.90
8.23
3.28
-3.69
-11.95
-20.46
-28.28
-34.83
-40.12
-44.82
-50.05
-56.96
-66.16
-77.12
-88.04
-96.05
-98.05
-91.78
-76.70
-54.33
-27.82
-0.96
22.87
41.56
54.42
61.88
64.91
64.55
61.61
56.86
51.02
44.95
39.51
35.28
32.42
30.62
29.28
27.84
26.05
24.02
22.13
20.77
20.05
19.62
18.79
16.69
12.69
6.64
-0.99
-9.26
-17.15
-23.95
-29.56
-34.46
-39.52
-45.68
-53.59
-63.33
-74.12
-84.32
-91.53
-93.11
-87.00
-72.57
-51.05
-25.35
0.81
24.07
42.35
55.08
62.85
66.62
67.15
64.88
60.12
53.44
45.85
38.64
32.95
29.32
27.62
27.13
26.98
26.59
25.80
24.89
24.26
24.11
24.24
24.03
22.69
19.50
14.22
7.12
-1.02
-9.19
-16.58
-22.80
-28.05
-32.99
-38.50
-45.42
-54.19
-64.63
-75.76
-85.70
-91.95
-92.02
-84.19
-68.36
-46.22
-20.95
3.74
24.72
40.15
49.72
54.26
55.00
53.06
49.15
43.77
37.43
30.84
24.85
20.18
17.17
15.63
14.99
14.55
13.83
12.69
11.38
10.26
9.61
9.32
8.92
7.68
4.95
0.43
-5.67
-12.64
-19.54
-25.58
-30.40
-34.24
-37.76
-41.86
-47.36
-54.80
-64.22
-74.92
-85.36
-93.25
-95.97
-91.31
-78.35
-57.91
-32.49
-5.59
19.27
39.43
53.57
61.67
64.57
63.43
59.43
53.55
46.62
39.39
32.53
26.60
21.97
18.74
16.77
15.78
15.46
15.65
16.31
17.41
18.75
19.89
20.11
18.74
15.30
9.86
2.95
-4.58
-11.87
-18.41
-24.19
-29.73
-35.88
-43.51
-53.13
-64.56
-76.60
-87.12
-93.36
-92.77
-83.85
-66.80
-43.65
-17.70
7.42
28.80
44.78
55.01
60.06
60.87
58.40
53.54
47.20
40.32
33.82
28.35
24.12
20.88
18.21
15.76
13.57
12.03
11.69
12.80
15.08
17.57
19.00
18.20
14.50
8.05
-0.33
-9.43
-18.04
-25.40
-31.33
-36.35
-41.53
-48.15
-57.26
-69.04
-82.36
-94.63
-102.33
-102.08
-91.85
-71.90
-44.83
-14.75
13.98
38.03
55.69
66.78
72.06
72.61
69.49
63.77
56.57
49.11
42.43
37.13
33.22
30.30
27.82
25.45
23.27
21.67
21.10
21.66
22.97
24.15
24.15
22.07
17.53
10.82
2.75
-5.62
-13.36
-20.00
-25.68
-31.05
-37.12
-44.90
-54.93
-66.84
-79.05
-88.82
-92.94
-88.73
-75.07
-53.06
-25.78
2.65
28.31
48.56
62.37
70.09
72.78
71.62
67.64
61.74
54.81
47.66
40.98
35.14
30.20
26.02
22.48
19.61
17.57
16.46
16.15
16.15
15.70
13.98
10.44
4.98
-1.99
-9.67
-17.20
-23.98
-29.88
-35.26
-40.97
-47.96
-56.99
-68.14
-80.46
-91.79
-99.10
-99.27
-90.15
-71.51
-45.34
-15.33
14.14
39.36
58.06
69.62
74.63
74.33
70.04
63.02
54.49
45.62
37.46
30.73
25.72
22.29
20.05
18.59
17.70
17.42
17.88
19.13
20.89
22.48
22.97
21.46
17.39
10.90
2.74
-5.96
-14.18
-21.40
-27.84
-34.32
-41.94
-51.60
-63.57
-77.09
-90.32
-100.46
-104.43
-99.73
-85.44
-62.74
-34.74
-5.63
20.58
41.09
54.76
61.99
63.96
62.05
57.43
50.97
43.48
35.77
28.66
22.87
18.82
16.57
15.83
16.25
17.45
19.18
21.15
22.93
23.91
23.38
20.78
15.91
9.17
1.35
-6.60
-14.00
-20.65
-26.92
-33.58
-41.53
-51.32
-62.72
-74.40
-83.97
-88.49
-85.36
-73.31
-53.05
-27.19
0.51
26.25
47.17
61.88
70.32
73.36
72.19
67.97
61.74
54.45
46.91
39.72
33.32
27.84
23.29
19.65
17.00
15.48
15.21
16.11
17.76
19.38
19.98
18.73
15.20
9.52
2.39
-5.30
-12.71
-19.43
-25.59
-31.81
-39.00
-48.06
-59.36
-72.32
-85.12
-94.90
-98.43
-93.19
-78.35
-55.30
-27.30
1.45
27.08
47.01
60.30
67.35
69.34
67.56
63.17
57.11
50.20
43.19
36.69
31.06
26.43
22.72
19.87
17.84
16.75
16.68
17.60
19.11
20.55
21.05
19.87
16.60
11.35
4.70
-2.52
-9.54
-15.90
-21.63
-27.25
-33.68
-41.83
-52.16
-64.14
-75.98
-84.77
-87.32
-81.19
-65.80
-42.75
-15.55
11.60
35.04
52.58
63.70
69.13
70.16
67.99
63.53
57.48
50.43
42.99
35.68
28.97
23.15
18.39
14.82
12.52
11.47
11.52
12.25
13.10
13.37
12.49
10.09
6.12
0.82
-5.32
-11.77
-18.12
-24.28
-30.65
-37.97
-46.99
-57.95
-69.97
-80.89
-87.65
-87.21
-77.68
-59.23
-34.23
-6.56
19.59
40.94
55.87
64.37
67.49
66.55
62.65
56.49
48.62
39.64
30.38
21.78
14.68
9.60
6.60
5.31
5.08
5.22
5.11
4.36
2.85
0.63
-2.15
-5.35
-8.95
-13.06
-17.88
-23.76
-31.07
-40.20
-51.20
-63.49
-75.47
-84.58
-87.84
-82.78
-68.49
-46.20
-19.09
8.66
33.13
51.76
63.74
69.70
71.00
68.98
64.58
58.41
50.93
42.77
34.71
27.58
21.99
18.18
15.94
14.77
14.05
13.25
12.01
10.17
7.81
5.01
1.85
-1.66
-5.62
-10.25
-15.83
-22.76
-31.44
-42.11
-54.45
-67.19
-77.98
-83.80
-81.89
-70.77
-51.13
-25.83
1.02
25.29
44.17
56.69
63.49
66.01
65.65
63.25
59.20
53.71
47.18
40.33
33.98
28.80
25.07
22.66
21.10
19.84
18.39
16.43
13.79
10.45
6.50
2.10
-2.64
-7.67
-13.08
-19.07
-25.98
-34.18
-44.02
-55.52
-68.04
-79.98
-88.81
-91.56
-85.87
-70.90
-47.95
-20.26
7.99
32.92
51.98
64.36
70.70
72.34
70.70
66.88
61.68
55.67
49.32
43.03
37.08
31.64
26.79
22.60
19.19
16.64
14.94
13.85
12.89
11.48
9.13
5.59
0.89
-4.64
-10.62
-16.68
-22.68
-28.77
-35.47
-43.52
-53.62
-65.73
-78.63
-89.81
-95.87
-93.72
-81.79
-60.78
-33.67
-4.70
21.95
43.35
58.36
67.27
71.17
71.22
68.37
63.34
56.90
49.96
43.46
38.06
33.95
30.84
28.09
25.23
22.16
19.28
17.20
16.31
16.44
16.79
16.14
13.46
8.30
1.00
-7.47
-15.89
-23.31
-29.35
-34.28
-38.89
-44.29
-51.52
-61.20
-73.10
-85.83
-96.77
-102.61
-100.34
-88.32
-67.13
-39.57
-9.84
17.78
40.15
55.87
65.21
69.28
69.35
66.39
61.10
54.13
46.39
39.00
33.01
29.10
27.32
27.11
27.55
27.73
27.11
25.66
23.85
22.27
21.25
20.58
19.50
17.00
12.27
5.23
-3.45
-12.52
-20.74
-27.31
-32.25
-36.24
-40.38
-45.78
-53.25
-63.13
-74.97
-87.36
-97.88
-103.50
-101.36
-89.82
-69.24
-42.08
-12.27
16.00
39.49
56.52
66.99
71.75
72.02
68.89
63.30
56.17
48.44
41.03
34.62
29.48
25.50
22.33
19.64
17.38
15.78
15.11
15.49
16.61
17.66
17.58
15.41
10.69
3.66
-4.80
-13.51
-21.40
-27.92
-33.17
-37.96
-43.47
-50.85
-60.69
-72.48
-84.36
-93.28
-95.83
-89.36
-73.04
-48.48
-19.31
9.90
35.03
53.51
64.74
69.62
69.80
66.82
61.75
55.20
47.59
39.38
31.21
23.75
17.58
12.96
9.93
8.25
7.58
7.50
7.60
7.49
6.85
5.41
3.06
-0.26
-4.49
-9.48
-15.12
-21.41
-28.51
-36.82
-46.76
-58.29
-70.49
-81.30
-87.77
-86.92
-76.84
-57.62
-31.63
-2.84
24.37
46.49
61.68
69.92
72.38
70.69
66.30
60.22
53.05
45.29
37.41
29.93
23.34
17.99
14.07
11.56
10.29
10.01
10.33
10.76
10.78
9.92
7.83
4.42
-0.16
-5.59
-11.51
-17.70
-24.12
-31.08
-39.13
-48.82
-60.17
-72.24
-82.81
-88.75
-87.01
-75.77
-55.38
-28.57
0.42
27.16
48.35
62.51
69.87
71.67
69.38
64.23
57.19
49.10
40.80
33.05
26.42
21.13
17.05
13.96
11.71
10.30
9.75
9.95
10.49
10.74
10.05
8.06
4.73
0.36
-4.67
-10.05
-15.73
-21.85
-28.72
-36.76
-46.33
-57.43
-69.25
-79.94
-86.68
-86.50
-77.28
-58.85
-33.32
-4.58
22.85
45.25
60.58
68.67
70.69
68.31
63.10
56.19
48.35
40.15
32.05
24.45
17.65
11.84
7.11
3.56
1.24
0.16
0.14
0.76
1.37
1.22
-0.27
-3.35
-7.81
-13.17
-18.85
-24.49
-30.07
-35.98
-42.92
-51.57
-62.23
-74.34
-86.16
-94.96
-97.52
-91.26
-75.22
-50.62
-20.71
10.16
37.82
59.39
73.63
80.81
82.03
78.61
71.80
62.75
52.58
42.43
33.27
25.71
19.92
15.68
12.64
10.54
9.30
9.01
9.63
10.86
12.00
12.16
10.51
6.61
0.62
-6.74
-14.48
-21.72
-28.01
-33.54
-39.07
-45.69
-54.41
-65.55
-78.34
-90.66
-99.35
-101.07
-93.36
-75.74
-50.06
-20.05
9.82
35.66
55.17
67.78
74.19
75.65
73.33
68.16
61.00
52.79
44.59
37.35
31.63
27.44
24.35
21.72
19.17
16.73
14.81
13.93
14.30
15.54
16.75
16.69
14.40
9.51
2.47
-5.69
-13.76
-20.89
-26.82
-32.00
-37.34
-43.94
-52.69
-63.90
-76.91
-89.87
-99.90
-103.62
-98.30
-82.84
-58.44
-28.37
2.89
31.09
53.32
68.39
76.69
79.38
77.78
72.91
65.62
56.72
47.19
38.03
30.08
23.79
19.16
15.87
13.58
12.14
11.62
12.17
13.75
15.93
17.86
18.50
17.00
13.03
6.92
-0.42
-7.91
-14.64
-20.28
-25.16
-30.20
-36.53
-45.10
-56.14
-68.77
-80.87
-89.38
-91.14
-83.86
-67.09
-42.58
-13.91
14.59
39.12
57.31
68.58
73.65
73.92
70.70
64.95
57.33
48.43
38.90
29.50
20.95
13.80
8.34
4.66
2.70
2.28
3.07
4.50
5.83
6.27
5.24
2.55
-1.57
-6.54
-11.76
-16.85
-21.80
-27.03
-33.26
-41.31
-51.67
-64.15
-77.45
-89.10
-95.90
-94.78
-83.90
-63.53
-36.16
-5.88
22.85
46.49
63.12
72.63
76.03
74.84
70.41
63.80
55.76
46.92
37.88
29.14
21.11
14.16
8.57
4.68
2.71
2.64
4.05
6.06
7.62
7.71
5.76
1.73
-3.98
-10.72
-17.88
-25.12
-32.41
-40.07
-48.73
-59.09
-71.48
-85.39
-98.99
-109.22
-112.50
-105.98
-88.66
-62.09
-30.02
2.74
31.83
54.42
69.59
77.94
80.71
79.19
74.44
67.40
59.11
50.71
43.21
37.15
32.45
28.62
25.15
21.84
19.07
17.37
17.05
17.79
18.62
18.27
15.67
10.47
3.12
-5.37
-13.92
-21.74
-28.69
-35.26
-42.41
-51.28
-62.80
-77.09
-93.02
-108.01
-118.40
-120.45
-111.60
-91.55
-62.60
-29.04
4.23
33.15
55.38
70.46
79.24
83.00
82.86
79.67
74.14
67.14
59.76
53.06
47.79
44.11
41.64
39.68
37.62
35.27
32.93
31.16
30.41
30.65
31.24
31.02
28.80
23.75
15.80
5.70
-5.25
-15.63
-24.39
-31.31
-36.96
-42.57
-49.59
-59.18
-71.73
-86.47
-101.28
-113.00
-118.00
-113.32
-97.70
-72.26
-40.31
-6.49
24.72
50.12
68.32
79.52
84.79
85.34
82.16
76.11
68.19
59.60
51.63
45.32
41.11
38.81
37.70
36.98
36.08
34.92
33.85
33.39
33.85
35.04
36.14
36.00
33.47
27.95
19.65
9.57
-0.87
-10.35
-18.17
-24.45
-30.05
-36.21
-44.11
-54.45
-67.12
-80.92
-93.59
-102.07
-103.28
-95.08
-77.12
-51.21
-20.91
9.57
36.53
57.72
72.37
80.83
83.87
82.27
76.79
68.39
58.37
48.20
39.25
32.38
27.76
24.99
23.40
22.41
21.81
21.65
22.10
23.14
24.37
24.98
23.96
20.49
14.25
5.64
-4.37
-14.52
-23.78
-31.66
-38.44
-44.95
-52.34
-61.63
-73.17
-86.21
-98.80
-107.91
-110.31
-103.47
-86.60
-60.98
-29.79
2.93
33.31
58.61
77.44
89.55
95.38
95.62
91.12
82.95
72.43
61.13
50.54
41.81
35.48
31.47
29.18
27.91
27.13
26.70
26.75
27.40
28.43
29.07
28.21
24.78
18.27
8.98
-1.97
-13.11
-23.14
-31.43
-38.20
-44.45
-51.60
-60.93
-73.11
-87.63
-102.57
-114.81
-120.58
-116.58
-101.09
-74.73
-40.66
-3.81
30.44
57.87
76.38
86.13
88.90
86.99
82.26
75.84
68.35
60.32
52.50
45.79
40.82
37.60
35.51
33.67
31.45
28.80
26.18
24.24
23.29
23.07
22.71
21.09
17.27
10.90
2.40
-7.19
-16.54
-24.56
-30.81
-35.67
-40.24
-46.04
-54.44
-66.11
-80.47
-95.47
-107.78
-113.64
-110.00
-95.63
-71.78
-41.86
-10.38
18.39
41.57
58.03
68.15
73.07
74.02
71.96
67.63
61.73
55.11
48.67
43.20
39.19
36.64
35.12
34.06
32.99
31.71
30.37
29.30
28.78
28.77
28.84
28.22
26.02
21.61
14.85
6.23
-3.25
-12.37
-20.15
-26.21
-30.94
-35.34
-40.66
-47.98
-57.85
-69.95
-83.01
-94.80
-102.48
-103.25
-95.19
-78.06
-53.60
-25.14
3.34
28.35
47.70
60.77
68.07
70.58
69.29
64.99
58.41
50.40
42.04
34.40
28.32
24.17
21.83
20.81
20.55
20.60
20.84
21.32
22.17
23.30
24.25
24.17
22.18
17.66
10.63
1.81
-7.63
-16.46
-23.86
-29.64
-34.33
-38.84
-44.23
-51.42
-60.82
-72.11
-83.97
-94.12
-99.67
-97.93
-87.28
-67.96
-42.18
-13.58
13.90
37.07
54.25
65.20
70.69
71.75
69.27
63.94
56.50
47.93
39.44
32.13
26.68
23.04
20.67
18.82
17.05
15.44
14.45
14.57
15.90
17.85
19.30
18.99
15.97
10.05
1.86
-7.46
-16.66
-24.82
-31.67
-37.59
-43.42
-50.22
-58.89
-69.77
-82.28
-94.64
-104.01
-107.13
-101.38
-85.84
-61.88
-32.87
-3.14
23.29
43.82
57.55
64.94
67.14
65.37
60.72
54.17
46.75
39.50
33.32
28.65
25.40
23.09
21.15
19.29
17.62
16.62
16.74
18.09
20.21
22.09
22.48
20.37
15.32
7.65
-1.66
-11.37
-20.34
-27.93
-34.18
-39.79
-45.92
-53.81
-64.31
-77.32
-91.37
-103.68
-110.69
-109.17
-97.37
-75.89
-47.56
-16.72
12.28
36.29
53.90
65.26
71.33
73.14
71.45
66.87
60.18
52.46
44.98
38.81
34.42
31.62
29.70
27.90
25.72
23.21
20.85
19.23
18.66
18.97
19.34
18.68
15.93
10.54
2.76
-6.51
-15.96
-24.45
-31.41
-37.03
-42.14
-47.86
-55.22
-64.77
-76.30
-88.64
-99.57
-106.20
-105.60
-95.81
-76.65
-50.07
-19.70
10.14
35.73
54.84
66.96
72.93
74.13
71.84
66.98
60.19
52.08
43.47
35.33
28.60
23.84
21.03
19.69
19.10
18.69
18.26
18.02
18.34
19.36
20.78
21.78
21.26
18.37
12.80
5.06
-3.75
-12.41
-19.94
-26.03
-31.01
-35.72
-41.21
-48.41
-57.87
-69.42
-81.87
-93.04
-99.94
-99.70
-90.43
-72.09
-46.75
-18.00
10.07
34.08
52.07
63.61
69.31
70.18
67.24
61.34
53.39
44.49
35.82
28.46
23.02
19.50
17.47
16.27
15.46
15.01
15.19
16.28
18.23
20.51
22.11
21.95
19.25
13.82
6.17
-2.72
-11.68
-19.82
-26.68
-32.46
-37.87
-43.99
-51.90
-62.17
-74.41
-86.86
-96.65
-100.47
-95.67
-81.34
-58.73
-31.06
-2.43
23.30
43.54
57.26
64.67
66.72
64.51
59.10
51.52
42.80
34.00
26.00
19.37
14.29
10.62
8.22
7.00
7.03
8.34
10.70
13.52
15.85
16.73
15.48
11.90
6.32
-0.54
-7.87
-15.09
-21.95
-28.73
-36.14
-45.12
-56.35
-69.66
-83.54
-95.12
-100.77
-97.29
-83.24
-59.63
-29.83
1.46
29.69
51.71
66.38
74.18
76.53
74.92
70.51
64.05
56.14
47.41
38.49
30.07
22.64
16.56
11.96
8.85
7.12
6.44
6.35
6.20
5.43
3.60
0.53
-3.69
-8.81
-14.64
-21.11
-28.39
-36.85
-46.98
-59.10
-72.95
-87.35
-100.03
-107.86
-107.80
-97.83
-77.95
-50.39
-19.05
11.60
37.80
57.33
69.68
75.66
76.75
74.45
69.97
64.19
57.70
50.89
44.08
37.57
31.71
26.81
23.11
20.65
19.17
18.20
17.11
15.38
12.75
9.14
4.74
-0.27
-5.74
-11.68
-18.19
-25.47
-33.89
-43.93
-55.93
-69.64
-83.76
-95.77
-102.36
-100.41
-88.26
-66.45
-37.81
-6.60
22.83
47.18
64.80
75.57
80.40
80.55
77.35
71.98
65.53
58.92
52.76
47.28
42.37
37.75
33.23
28.94
25.30
22.81
21.76
22.00
22.79
23.03
21.65
17.96
12.00
4.46
-3.62
-11.30
-18.13
-24.30
-30.55
-37.94
-47.41
-59.33
-73.12
-86.90
-97.69
-102.03
-97.11
-81.89
-57.72
-28.13
2.29
29.37
50.45
64.79
73.13
76.81
77.05
74.62
70.01
63.77
56.62
49.50
43.23
38.31
34.75
32.18
30.13
28.22
26.41
24.88
23.89
23.46
23.26
22.60
20.63
16.71
10.60
2.63
-6.43
-15.62
-24.08
-31.30
-37.32
-42.68
-48.33
-55.40
-64.90
-77.21
-91.68
-106.39
-118.29
-123.94
-120.56
-107.05
-84.54
-56.09
-25.82
2.36
25.76
43.22
54.92
61.70
64.53
64.16
61.21
56.30
50.30
44.25
39.16
35.85
34.63
35.24
37.02
39.14
40.91
41.98
42.40
42.44
42.32
42.01
41.16
39.17
35.47
29.74
22.16
13.29
3.95
-5.05
-13.18
-20.25
-26.46
-32.26
-38.30
-45.29
-53.89
-64.45
-76.53
-88.68
-98.35
-102.45
-98.35
-84.86
-62.91
-35.43
-6.44
20.15
41.67
57.01
66.43
70.90
71.44
68.82
63.63
56.60
48.69
41.03
34.66
30.18
27.64
26.55
26.19
25.97
25.57
25.08
24.74
24.72
24.87
24.70
23.49
20.54
15.43
8.27
-0.42
-9.79
-18.95
-27.18
-34.17
-40.01
-45.24
-50.64
-57.10
-65.27
-75.27
-86.28
-96.49
-103.27
-103.90
-96.41
-80.42
-57.42
-30.42
-3.03
21.52
41.17
55.17
63.77
67.71
67.81
64.77
59.29
52.23
44.61
37.47
31.71
27.83
25.87
25.44
25.91
26.67
27.32
27.72
28.03
28.41
28.89
29.14
28.55
26.40
22.23
16.05
8.45
0.35
-7.30
-13.95
-19.54
-24.48
-29.47
-35.26
-42.47
-51.47
-62.16
-73.73
-84.43
-91.79
-93.09
-86.31
-70.95
-48.41
-21.75
5.30
29.41
48.45
61.69
69.48
72.61
71.91
68.11
61.90
54.26
46.35
39.36
34.14
30.92
29.36
28.73
28.37
27.99
27.73
27.98
29.07
30.92
33.01
34.44
34.23
31.71
26.76
19.88
12.00
4.20
-2.72
-8.45
-13.30
-18.02
-23.51
-30.62
-39.76
-50.74
-62.50
-73.04
-79.75
-80.01
-72.10
-55.98
-33.49
-7.92
16.99
38.15
53.73
63.31
67.41
67.00
63.06
56.51
48.23
39.20
30.36
22.51
16.10
11.20
7.65
5.15
3.57
2.90
3.30
4.79
7.13
9.66
11.45
11.62
9.59
5.38
-0.44
-6.99
-13.40
-19.13
-24.14
-28.89
-34.21
-40.99
-49.81
-60.48
-71.74
-81.27
-86.19
-83.94
-73.22
-54.62
-30.60
-4.81
19.06
38.17
51.14
57.97
59.56
57.16
51.95
44.93
36.86
28.41
20.12
12.43
5.64
-0.03
-4.42
-7.36
-8.78
-8.75
-7.61
-5.94
-4.49
-3.97
-4.89
-7.49
-11.62
-16.86
-22.65
-28.44
-33.94
-39.30
-45.05
-52.11
-61.25
-72.60
-85.08
-96.26
-102.86
-101.77
-91.22
-71.60
-45.49
-16.92
9.94
31.93
47.50
56.65
60.28
59.59
55.65
49.35
41.51
33.03
24.79
17.50
11.54
6.95
3.62
1.46
0.52
0.88
2.44
4.70
6.80
7.70
6.61
3.27
-1.98
-8.38
-15.13
-21.67
-27.88
-34.05
-40.82
-48.96
-59.05
-71.09
-84.04
-95.66
-102.78
-102.26
-92.05
-72.20
-45.07
-14.70
14.44
38.72
56.14
66.48
70.72
70.38
66.89
61.37
54.65
47.31
39.87
32.74
26.26
20.65
16.07
12.59
10.29
9.16
9.05
9.59
10.13
9.86
8.07
4.29
-1.44
-8.63
-16.54
-24.43
-31.93
-39.11
-46.61
-55.36
-66.15
-79.06
-92.97
-105.42
-113.04
-112.56
-101.99
-81.47
-53.41
-21.82
8.93
35.32
55.36
68.61
75.69
77.68
75.71
70.85
64.14
56.74
49.73
43.90
39.57
36.56
34.37
32.49
30.71
29.21
28.39
28.54
29.52
30.67
30.93
29.23
24.94
18.11
9.47
0.12
-8.85
-16.86
-24.00
-31.04
-39.14
-49.39
-62.25
-77.02
-91.67
-103.07
-107.73
-102.94
-87.77
-63.56
-33.69
-2.48
25.96
48.81
64.87
74.29
78.00
77.17
72.87
66.17
58.21
50.18
43.18
37.96
34.71
33.08
32.44
32.14
31.82
31.49
31.42
31.85
32.73
33.50
33.27
31.10
26.53
19.70
11.47
3.02
-4.60
-10.89
-16.03
-20.82
-26.33
-33.58
-43.20
-55.03
-67.90
-79.54
-86.99
-87.29
-78.49
-60.52
-35.36
-6.58
21.77
46.32
65.10
77.67
84.63
86.95
85.53
81.09
74.31
66.04
57.40
49.49
43.19
38.84
36.20
34.64
33.48
32.33
31.18
30.36
30.18
30.64
31.19
30.89
28.75
24.17
17.20
8.60
-0.48
-8.91
-15.99
-21.67
-26.47
-31.30
-37.17
-44.95
-54.99
-66.89
-79.20
-89.44
-94.58
-91.93
-80.11
-59.81
-33.71
-5.76
20.14
41.14
56.01
64.91
68.73
68.48
64.88
58.55
50.21
40.89
31.82
24.11
18.51
15.12
13.57
13.22
13.50
14.11
15.07
16.53
18.56
20.83
22.58
22.80
20.62
15.72
8.52
0.13
-8.15
-15.27
-20.89
-25.40
-29.72
-35.00
-42.15
-51.63
-63.08
-75.07
-85.20
-90.48
-88.24
-77.03
-57.44
-31.98
-4.48
21.19
42.13
56.99
65.82
69.41
68.78
64.73
57.92
49.08
39.16
29.28
20.50
13.55
8.69
5.71
4.11
3.44
3.44
4.11
5.55
7.70
10.12
11.99
12.27
10.12
5.23
-1.99
-10.54
-19.16
-26.85
-33.27
-38.77
-44.24
-50.84
-59.51
-70.63
-83.68
-97.00
-107.93
-113.28
-110.25
-97.44
-75.50
-47.14
-16.38
12.65
36.87
54.75
66.26
72.26
73.83
71.91
67.23
60.52
52.69
44.78
37.79
32.38
28.73
26.51
25.13
24.04
22.99
22.08
21.64
21.94
22.90
23.94
24.10
22.39
18.16
11.45
3.01
-6.00
-14.40
-21.56
-27.50
-32.93
-38.86
-46.33
-56.00
-67.97
-81.45
-94.65
-104.88
-109.01
-104.45
-90.04
-66.78
-37.69
-6.98
21.21
43.87
59.70
68.92
72.57
71.83
67.72
61.02
52.53
43.25
34.30
26.66
20.92
17.10
14.70
13.09
11.79
10.73
10.12
10.27
11.22
12.52
13.33
12.61
9.59
3.97
-3.86
-13.01
-22.32
-30.72
-37.53
-42.68
-46.78
-50.92
-56.43
-64.41
-75.23
-88.04
-100.66
-109.89
-112.40
-105.76
-89.45
-65.12
-36.16
-6.61
19.98
41.37
56.77
66.51
71.35
72.09
69.39
63.96
56.67
48.58
40.84
34.38
29.70
26.81
25.34
24.74
24.55
24.59
24.98
25.89
27.34
28.98
30.04
29.56
26.68
21.06
12.99
3.37
-6.61
-15.85
-23.70
-30.13
-35.74
-41.58
-48.85
-58.43
-70.50
-84.10
-97.06
-106.27
-108.51
-101.47
-84.59
-59.38
-29.10
2.26
31.05
54.79
72.40
83.97
90.16
91.84
89.82
84.93
78.12
70.51
63.21
57.09
52.60
49.68
47.90
46.62
45.31
43.69
41.84
40.07
38.65
37.63
36.60
34.82
31.44
25.88
18.15
8.91
-0.78
-9.89
-17.79
-24.48
-30.43
-36.45
-43.32
-51.70
-61.90
-73.66
-85.85
-96.36
-102.32
-100.87
-90.22
-70.45
-43.82
-14.08
14.60
38.85
56.80
68.10
73.38
73.60
69.77
62.84
53.88
44.15
34.92
27.22
21.57
17.93
15.91
15.07
15.12
16.06
17.96
20.72
23.86
26.44
27.33
25.60
20.90
13.63
4.80
-4.31
-12.68
-19.86
-26.09
-32.13
-38.98
-47.52
-58.19
-70.67
-83.55
-94.42
-100.20
-98.04
-86.32
-65.49
-38.05
-7.95
20.66
44.61
62.19
73.17
78.18
78.18
74.08
66.81
57.46
47.25
37.35
28.63
21.49
15.90
11.63
8.53
6.63
6.01
6.57
7.89
9.18
9.49
8.02
4.35
-1.40
-8.67
-16.63
-24.49
-31.77
-38.42
-44.87
-51.94
-60.59
-71.47
-84.44
-98.14
-110.01
-116.68
-115.01
-103.09
-81.14
-51.57
-18.41
13.88
41.60
62.54
76.14
82.97
84.20
81.03
74.60
66.00
56.42
47.12
39.20
33.31
29.48
27.19
25.72
24.51
23.48
22.93
23.32
24.71
26.57
27.71
26.73
22.60
15.08
4.92
-6.48
-17.52
-27.11
-34.95
-41.59
-48.20
-56.20
-66.72
-80.06
-95.33
-110.22
-121.20
-124.33
-116.43
-96.48
-66.32
-30.37
5.64
36.60
59.41
73.53
80.45
82.37
81.07
77.50
71.95
64.70
56.45
48.34
41.56
36.84
34.24
33.14
32.72
32.32
31.65
30.91
30.55
30.94
32.02
33.21
33.50
31.78
27.30
19.98
10.52
0.08
-10.08
-19.03
-26.54
-33.01
-39.31
-46.50
-55.53
-66.90
-80.43
-94.98
-108.36
-117.53
-119.34
-111.46
-93.35
-66.65
-34.89
-2.49
26.57
49.68
65.90
75.62
79.85
79.61
75.70
68.92
60.23
50.86
42.17
35.24
30.61
28.19
27.39
27.48
27.88
28.38
29.11
30.31
32.02
33.92
35.24
34.94
32.11
26.30
17.76
7.47
-3.28
-13.24
-21.68
-28.57
-34.51
-40.54
-47.80
-57.19
-69.02
-82.60
-96.07
-106.53
-110.55
-105.36
-89.77
-64.89
-33.99
-1.56
28.03
51.70
68.17
77.72
81.46
80.67
76.38
69.37
60.48
50.72
41.25
33.18
27.19
23.42
21.48
20.71
20.50
20.49
20.65
21.14
22.10
23.36
24.37
24.26
22.11
17.29
9.74
0.05
-10.72
-21.39
-31.07
-39.39
-46.56
-53.27
-60.44
-69.06
-79.88
-92.98
-107.35
-120.70
-129.62
-130.58
-121.01
-100.56
-71.34
-37.48
-3.80
25.59
48.31
63.82
72.90
76.85
76.91
73.99
68.85
62.34
55.44
49.14
44.21
40.99
39.33
38.74
38.63
38.55
38.36
38.15
38.14
38.42
38.84
38.89
37.89
35.12
30.00
22.33
12.42
1.03
-10.77
-21.92
-31.66
-39.83
-46.86
-53.65
-61.31
-70.72
-82.27
-95.44
-108.57
-118.97
-123.35
-118.82
-103.92
-79.38
-48.17
-14.66
16.69
42.53
61.33
73.23
79.36
81.11
79.59
75.56
69.67
62.62
55.29
48.60
43.29
39.77
38.01
37.59
37.89
38.30
38.45
38.26
37.83
37.31
36.67
35.57
33.43
29.68
23.97
16.37
7.37
-2.27
-11.75
-20.49
-28.21
-35.01
-41.32
-47.87
-55.52
-65.07
-76.89
-90.40
-103.78
-114.04
-117.70
-111.93
-95.62
-70.06
-38.61
-5.78
24.21
48.48
65.92
76.84
82.24
83.11
80.22
74.17
65.76
56.08
46.50
38.26
32.17
28.41
26.66
26.29
26.68
27.45
28.46
29.72
31.19
32.64
33.55
33.13
30.59
25.38
17.51
7.60
-3.25
-13.77
-23.12
-31.01
-37.87
-44.61
-52.32
-61.92
-73.87
-87.83
-102.50
-115.42
-123.44
-123.34
-112.98
-92.17
-63.01
-29.48
3.77
32.73
54.99
69.91
78.21
81.14
79.90
75.38
68.35
59.64
50.32
41.52
34.20
28.95
25.79
24.34
24.02
24.32
24.93
25.80
27.07
28.79
30.72
32.23
32.44
30.43
25.63
18.04
8.26
-2.64
-13.54
-23.57
-32.39
-40.25
-47.83
-56.08
-65.94
-78.12
-92.64
-108.54
-123.64
-134.69
-138.15
-131.20
-112.91
-84.77
-50.40
-14.52
18.46
45.48
65.29
78.04
84.68
86.26
83.69
77.90
69.94
61.05
52.54
45.42
40.20
36.83
34.84
33.64
32.75
31.99
31.44
31.36
31.90
32.94
33.98
34.14
32.40
28.00
20.78
11.30
0.76
-9.47
-18.36
-25.57
-31.57
-37.39
-44.31
-53.40
-65.19
-79.29
-94.21
-107.37
-115.49
-115.43
-105.19
-84.81
-56.47
-24.01
8.19
36.47
58.56
73.74
82.35
85.29
83.57
78.17
70.17
60.76
51.17
42.41
35.12
29.45
25.24
22.16
20.04
18.92
19.01
20.44
23.06
26.24
28.91
29.81
27.89
22.73
14.69
4.86
-5.35
-14.70
-22.57
-29.16
-35.36
-42.41
-51.47
-63.12
-76.97
-91.34
-103.41
-109.75
-107.31
-94.48
-71.88
-42.34
-10.09
20.43
45.82
64.31
75.65
80.61
80.34
76.02
68.77
59.74
50.04
40.67
32.23
24.95
18.78
13.64
9.61
7.01
6.14
7.07
9.38
12.15
14.16
14.24
11.66
6.37
-1.01
-9.44
-17.83
-25.45
-32.26
-38.97
-46.76
-56.85
-69.85
-85.09
-100.45
-112.52
-117.50
-112.42
-96.23
-70.35
-38.33
-4.84
25.77
50.42
67.81
78.11
82.39
81.95
78.00
71.68
64.06
56.20
49.01
42.99
38.19
34.30
30.83
27.50
24.43
22.09
20.98
21.28
22.55
23.72
23.42
20.52
14.57
5.98
-4.12
-14.34
-23.57
-31.37
-38.11
-44.77
-52.67
-63.00
-76.29
-91.82
-107.41
-119.59
-124.44
-118.89
-101.94
-75.21
-42.59
-8.95
21.35
45.57
62.84
73.72
79.28
80.60
78.46
73.65
67.14
60.12
53.81
49.02
45.96
44.23
43.11
41.99
40.61
39.17
38.12
37.78
38.03
38.17
37.12
33.82
27.69
18.89
8.33
-2.65
-12.77
-21.23
-27.95
-33.60
-39.29
-46.32
-55.73
-67.92
-82.24
-96.82
-108.67
-114.28
-110.68
-96.49
-72.62
-42.20
-9.67
20.54
45.18
62.80
73.50
78.36
78.66
75.52
69.82
62.40
54.24
46.35
39.66
34.70
31.57
29.93
29.21
28.91
28.70
28.51
28.45
28.64
29.04
29.26
28.69
26.53
22.15
15.34
6.46
-3.63
-13.81
-23.09
-30.92
-37.34
-42.90
-48.48
-55.07
-63.48
-74.07
-86.37
-98.74
-108.52
-112.49
-107.92
-93.58
-70.43
-41.45
-10.76
17.60
40.77
57.45
67.71
72.41
72.54
69.01
62.62
54.34
45.29
36.75
29.74
24.82
21.98
20.70
20.35
20.46
20.93
21.93
23.71
26.24
29.03
31.22
31.69
29.59
24.56
16.99
7.88
-1.51
-10.07
-17.31
-23.41
-29.20
-35.78
-44.18
-54.97
-67.94
-81.80
-94.25
-102.31
-102.97
-94.29
-76.10
-50.34
-20.58
9.01
34.89
54.89
68.40
75.95
78.47
76.83
71.74
63.93
54.40
44.51
35.63
28.83
24.54
22.41
21.66
21.41
21.15
20.84
20.85
21.48
22.73
24.01
24.30
22.56
18.06
10.80
1.45
-8.85
-18.92
-27.91
-35.56
-42.23
-48.77
-56.26
-65.75
-77.80
-92.03
-106.78
-119.16
-125.60
-122.96
-109.58
-86.12
-55.47
-21.93
10.07
37.17
57.66
71.37
79.07
81.86
80.78
76.74
70.67
63.57
56.48
50.28
45.51
42.26
40.27
39.03
38.02
36.87
35.48
34.01
32.76
31.98
31.59
31.10
29.65
26.37
20.66
12.53
2.67
-7.83
-17.83
-26.56
-33.79
-39.86
-45.47
-51.56
-59.07
-68.76
-80.85
-94.67
-108.31
-118.78
-122.57
-116.85
-100.48
-74.71
-42.96
-9.78
20.45
44.73
61.87
72.25
77.12
77.87
75.66
71.32
65.57
59.12
52.75
47.12
42.67
39.54
37.65
36.81
36.82
37.56
38.87
40.52
42.09
43.10
43.07
41.68
38.86
34.74
29.55
23.51
16.70
9.16
0.84
-8.19
-17.67
-27.11
-35.93
-43.65
-50.18
-55.84
-61.40
-67.89
-76.16
-86.40
-97.74
-107.99
-114.09
-112.83
-102.08
-81.65
-53.63
-21.90
9.08
35.53
55.28
67.87
74.12
75.41
73.11
68.38
62.20
55.50
49.11
43.65
39.44
36.51
34.63
33.59
33.30
33.81
35.17
37.31
39.83
42.07
43.16
42.42
39.52
34.67
28.60
22.23
16.27
10.91
5.79
0.20
-6.53
-14.63
-23.76
-33.14
-41.86
-49.30
-55.34
-60.53
-65.82
-72.38
-81.03
-91.79
-103.52
-113.76
-119.27
-116.96
-104.98
-83.50
-54.83
-22.80
8.43
35.41
56.06
69.76
77.00
78.76
76.20
70.48
62.71
54.00
45.39
37.76
31.70
27.44
24.95
24.05
24.52
26.20
28.94
32.47
36.31
39.73
41.86
41.94
39.61
34.99
28.71
21.59
14.38
7.49
0.87
-5.85
-13.12
-21.14
-29.72
-38.36
-46.40
-53.36
-59.13
-64.11
-69.13
-75.20
-83.16
-93.21
-104.46
-114.78
-121.12
-120.24
-109.87
-89.63
-61.40
-28.87
3.57
32.12
54.40
69.70
78.59
82.19
81.64
77.87
71.66
63.76
55.02
46.33
38.44
31.88
26.92
23.63
21.95
21.76
22.84
24.89
27.44
29.95
31.80
32.51
31.76
29.47
25.76
20.77
14.65
7.46
-0.71
-9.63
-18.97
-28.18
-36.77
-44.39
-51.04
-57.10
-63.31
-70.53
-79.46
-90.14
-101.62
-111.81
-117.76
-116.49
-105.93
-85.86
-58.18
-26.45
5.09
32.73
54.12
68.47
76.24
78.48
76.34
70.83
62.86
53.43
43.70
34.78
27.60
22.59
19.68
18.39
18.10
18.35
18.93
19.94
21.57
23.86
26.40
28.44
28.94
26.95
22.02
14.39
4.96
-5.07
-14.56
-22.87
-29.95
-36.26
-42.60
-49.82
-58.72
-69.80
-82.86
-96.70
-108.94
-116.30
-115.51
-104.48
-83.23
-54.13
-21.31
10.71
38.25
59.31
73.56
81.77
85.00
84.15
79.83
72.61
63.30
53.00
42.92
34.10
27.12
22.12
18.86
17.00
16.22
16.31
17.16
18.63
20.49
22.32
23.52
23.36
21.15
16.43
9.20
-0.03
-10.30
-20.54
-29.90
-38.06
-45.31
-52.40
-60.30
-69.86
-81.50
-94.85
-108.47
-119.84
-125.76
-123.25
-110.53
-87.87
-57.74
-24.10
8.67
36.98
58.74
73.41
81.48
83.93
81.73
75.86
67.34
57.36
47.26
38.27
31.27
26.56
23.91
22.64
22.02
21.53
21.00
20.64
20.80
21.65
22.93
23.92
23.62
21.07
15.77
7.87
-1.80
-12.06
-21.72
-30.13
-37.22
-43.55
-50.03
-57.68
-67.33
-79.25
-92.85
-106.31
-116.75
-120.74
-115.35
-99.37
-73.86
-42.14
-8.73
22.04
47.17
65.44
77.10
83.17
84.66
82.42
77.11
69.55
60.77
51.95
44.22
38.32
34.53
32.64
32.17
32.53
33.22
33.95
34.62
35.24
35.85
36.34
36.41
35.54
33.08
28.52
21.62
12.63
2.28
-8.47
-18.66
-27.73
-35.60
-42.75
-49.97
-58.15
-68.03
-79.89
-93.21
-106.40
-116.87
-121.45
-117.31
-103.01
-79.27
-48.93
-16.19
14.65
40.35
59.38
71.77
78.49
80.75
79.53
75.49
69.27
61.61
53.47
45.84
39.58
35.19
32.72
31.94
32.44
33.76
35.50
37.35
39.05
40.35
41.03
40.80
39.33
36.27
31.35
24.52
16.03
6.44
-3.50
-13.08
-21.83
-29.61
-36.65
-43.42
-50.60
-58.91
-68.94
-80.71
-93.29
-104.57
-111.54
-111.08
-101.02
-81.16
-53.53
-21.90
9.38
36.59
57.53
71.59
79.40
82.11
80.95
76.95
70.97
63.81
56.28
49.15
43.09
38.52
35.62
34.31
34.30
35.24
36.70
38.33
39.81
40.87
41.25
40.71
39.01
36.00
31.58
25.73
18.52
10.13
0.88
-8.75
-18.26
-27.16
-35.13
-42.15
-48.50
-54.73
-61.61
-69.92
-80.11
-91.79
-103.45
-112.44
-115.56
-110.08
-94.80
-70.70
-40.79
-9.20
20.06
44.12
61.67
72.79
78.34
79.45
77.16
72.36
65.87
58.47
50.94
44.02
38.27
34.10
31.64
30.78
31.23
32.52
34.18
35.83
37.14
37.87
37.76
36.54
33.95
29.84
24.19
17.19
9.16
0.52
-8.37
-17.12
-25.50
-33.27
-40.35
-46.81
-52.95
-59.34
-66.74
-75.80
-86.62
-98.24
-108.53
-114.49
-113.14
-102.57
-82.78
-55.87
-25.47
4.36
30.23
50.18
63.75
71.53
74.57
73.89
70.32
64.56
57.33
49.46
41.87
35.39
30.62
27.78
26.74
27.10
28.31
29.81
31.22
32.26
32.85
32.92
32.34
30.88
28.19
23.92
17.90
10.29
1.62
-7.31
-15.70
-23.00
-29.11
-34.36
-39.39
-44.96
-51.77
-60.34
-70.70
-82.13
-92.91
-100.44
-101.79
-94.68
-78.38
-54.30
-25.63
3.53
29.41
49.52
63.02
70.37
72.71
71.27
67.00
60.67
52.96
44.67
36.68
29.81
24.61
21.29
19.68
19.35
19.81
20.61
21.50
22.38
23.21
23.92
24.30
23.97
22.46
19.31
14.28
7.41
-0.85
-9.82
-18.73
-26.92
-34.04
-40.20
-45.82
-51.63
-58.46
-67.07
-77.78
-90.07
-102.34
-111.88
-115.49
-110.41
-95.45
-71.54
-41.72
-10.23
18.73
42.17
58.78
68.77
73.24
73.49
70.59
65.37
58.50
50.73
42.90
35.88
30.34
26.63
24.66
24.00
24.09
24.41
24.74
25.08
25.58
26.27
26.86
26.75
25.20
21.62
15.82
8.15
-0.61
-9.54
-17.84
-25.08
-31.27
-36.83
-42.42
-48.87
-56.99
-67.27
-79.51
-92.48
-103.83
-110.48
-109.52
-99.15
-79.58
-53.07
-23.30
5.73
30.77
50.00
62.95
70.05
72.06
69.79
64.06
55.87
46.50
37.36
29.70
24.26
21.16
19.98
20.06
20.78
21.78
22.97
24.39
26.09
27.94
29.57
30.41
29.68
26.74
21.20
13.23
3.57
-6.60
-16.10
-24.15
-30.69
-36.36
-42.25
-49.47
-58.78
-70.19
-82.79
-94.71
-103.34
-105.88
-100.15
-85.38
-62.65
-34.68
-5.17
22.26
44.95
61.54
71.90
76.61
76.57
72.69
65.87
57.10
47.54
38.41
30.73
25.12
21.59
19.70
18.72
18.04
17.45
17.13
17.40
18.39
19.71
20.44
19.46
15.91
9.59
1.09
-8.41
-17.62
-25.63
-32.19
-37.77
-43.35
-50.05
-58.80
-69.97
-82.97
-96.11
-106.61
-111.20
-107.09
-92.98
-69.77
-40.44
-9.20
19.81
43.65
61.11
72.41
78.56
80.63
79.36
75.24
68.84
60.98
52.80
45.42
39.68
35.85
33.62
32.30
31.21
29.97
28.62
27.50
26.94
26.97
27.09
26.43
24.00
19.09
11.58
2.03
-8.56
-19.03
-28.50
-36.59
-43.45
-49.71
-56.21
-63.89
-73.49
-85.21
-98.33
-110.94
-120.07
-122.42
-115.39
-98.19
-72.32
-41.25
-9.34
19.49
42.72
59.51
70.31
76.18
78.12
76.96
73.32
67.87
61.45
54.96
49.15
44.54
41.25
39.14
37.93
37.34
37.15
37.27
37.62
38.14
38.69
39.08
38.96
37.87
35.27
30.70
24.00
15.48
5.86
-3.89
-12.97
-20.96
-27.99
-34.56
-41.30
-48.86
-57.76
-68.36
-80.49
-93.18
-104.38
-111.17
-110.59
-100.66
-81.43
-55.10
-25.51
3.16
27.62
46.13
58.59
65.81
68.91
68.76
65.90
60.77
53.99
46.46
39.28
33.50
29.73
28.03
27.97
28.89
30.20
31.58
33.00
34.54
36.18
37.61
38.30
37.54
34.71
29.47
21.90
12.60
2.51
-7.28
-15.95
-23.10
-28.96
-34.17
-39.59
-46.02
-54.05
-63.85
-74.99
-86.22
-95.41
-99.88
-97.11
-85.68
-65.95
-40.21
-12.03
14.76
37.15
53.52
63.67
68.28
68.40
65.04
59.10
51.46
43.05
34.84
27.73
22.31
18.72
16.70
15.73
15.33
15.28
15.69
16.83
18.84
21.39
23.62
24.33
22.48
17.59
10.03
0.90
-8.39
-16.69
-23.53
-29.25
-34.81
-41.42
-50.06
-61.06
-73.85
-86.78
-97.30
-102.53
-99.91
-88.13
-67.74
-41.11
-11.91
15.97
39.37
56.62
67.44
72.68
73.54
71.22
66.67
60.64
53.88
47.14
41.07
36.14
32.41
29.62
27.36
25.34
23.56
22.34
22.03
22.70
23.88
24.59
23.59
19.95
13.48
4.81
-4.90
-14.37
-22.77
-29.95
-36.42
-43.11
-51.02
-60.90
-72.80
-85.80
-97.79
-105.77
-106.60
-98.10
-80.01
-54.32
-24.72
4.51
29.87
49.38
62.72
70.69
74.39
74.72
72.28
67.55
61.18
54.13
47.45
42.00
38.13
35.62
33.86
32.22
30.36
28.39
26.76
25.99
26.23
27.08
27.62
26.71
23.44
17.52
9.42
0.15
-9.09
-17.39
-24.36
-30.31
-36.05
-42.67
-51.27
-62.52
-76.23
-91.08
-104.47
-113.06
-113.66
-104.30
-85.13
-58.50
-28.24
1.43
27.10
46.86
60.28
67.95
70.93
70.27
66.90
61.63
55.26
48.55
42.22
36.83
32.73
30.01
28.50
27.80
27.47
27.16
26.74
26.34
26.18
26.27
26.30
25.64
23.49
19.29
12.96
4.99
-3.73
-12.24
-19.88
-26.44
-32.14
-37.53
-43.27
-50.06
-58.51
-68.95
-81.05
-93.46
-103.74
-108.78
-105.80
-93.38
-72.24
-45.13
-16.05
11.14
33.67
50.39
61.48
67.83
70.43
69.96
66.98
62.02
55.84
49.29
43.19
38.14
34.35
31.73
30.02
28.88
28.10
27.58
27.27
27.19
27.29
27.36
27.03
25.82
23.23
18.93
12.93
5.60
-2.37
-10.22
-17.36
-23.56
-29.01
-34.21
-39.84
-46.59
-54.97
-65.12
-76.47
-87.59
-96.13
-99.33
-94.77
-81.32
-59.71
-32.56
-3.61
23.34
45.48
61.53
71.51
76.24
76.64
73.50
67.36
58.90
49.10
39.18
30.43
23.79
19.62
17.63
17.18
17.57
18.35
19.39
20.74
22.45
24.25
25.53
25.44
23.18
18.34
11.09
2.24
-7.08
-15.73
-23.02
-28.85
-33.84
-38.96
-45.35
-53.96
-65.18
-78.55
-92.50
-104.37
-110.94
-109.25
-97.69
-76.71
-48.85
-18.04
11.57
36.74
55.73
68.31
75.15
77.23
75.47
70.62
63.42
54.76
45.71
37.36
30.50
25.47
22.07
19.74
17.87
16.16
14.63
13.71
13.82
15.04
16.89
18.33
18.12
15.29
9.56
1.50
-7.72
-16.81
-24.86
-31.57
-37.32
-42.93
-49.36
-57.50
-67.88
-80.35
-93.74
-105.70
-113.04
-112.60
-102.35
-82.40
-55.14
-24.53
5.12
30.47
49.76
62.83
70.36
73.33
72.59
68.86
62.99
55.96
48.88
42.64
37.74
34.18
31.56
29.34
27.12
24.84
22.78
21.42
21.20
22.17
23.85
25.28
25.29
22.91
17.73
10.03
0.78
-8.80
-17.66
-25.25
-31.69
-37.63
-44.05
-51.85
-61.71
-73.64
-86.91
-99.69
-109.33
-112.81
-107.71
-93.10
-70.06
-41.57
-11.57
16.16
39.03
55.93
66.93
72.68
73.92
71.27
65.41
57.32
48.25
39.53
32.23
26.87
23.34
21.09
19.51
18.20
17.20
16.88
17.65
19.68
22.52
25.17
26.36
24.95
20.42
13.12
4.11
-5.25
-13.81
-21.08
-27.31
-33.39
-40.48
-49.58
-61.09
-74.41
-87.80
-98.56
-103.65
-100.52
-88.08
-67.10
-40.17
-10.98
16.81
40.40
58.33
70.36
77.00
78.96
76.90
71.50
63.58
54.21
44.63
35.96
28.86
23.44
19.40
16.26
13.75
11.94
11.11
11.61
13.35
15.80
17.88
18.36
16.23
11.14
3.53
-5.49
-14.53
-22.50
-29.03
-34.55
-40.09
-46.95
-56.18
-68.12
-82.14
-96.35
-107.91
-113.52
-110.39
-97.25
-74.93
-46.29
-15.38
13.76
38.19
56.54
68.86
75.93
78.63
77.64
73.45
66.67
58.23
49.34
41.18
34.68
30.18
27.45
25.91
24.95
24.22
23.74
23.76
24.45
25.68
26.83
26.92
24.99
20.42
13.23
4.10
-5.84
-15.43
-23.74
-30.54
-36.18
-41.50
-47.67
-55.79
-66.59
-79.93
-94.50
-107.76
-116.33
-116.94
-107.55
-88.10
-60.80
-29.44
1.71
29.10
50.65
65.83
75.19
79.73
80.36
77.77
72.59
65.56
57.61
49.79
42.98
37.65
33.85
31.20
29.28
27.82
26.77
26.28
26.45
27.19
28.09
28.48
27.58
24.70
19.45
11.92
2.70
-7.23
-16.83
-25.30
-32.35
-38.35
-44.12
-50.74
-59.17
-69.92
-82.73
-96.26
-108.19
-115.46
-115.19
-105.51
-86.42
-59.91
-29.48
0.92
27.92
49.45
64.84
74.46
79.12
79.66
76.79
71.19
63.69
55.29
47.07
39.92
34.34
30.35
27.61
25.64
24.12
23.03
22.58
23.03
24.39
26.25
27.69
27.65
25.16
19.81
11.92
2.47
-7.22
-15.99
-23.22
-29.05
-34.19
-39.72
-46.71
-55.91
-67.44
-80.54
-93.33
-103.08
-106.68
-101.63
-86.93
-63.70
-34.89
-4.52
23.59
46.71
63.61
74.34
79.62
80.25
76.97
70.50
61.71
51.80
42.08
33.73
27.44
23.33
20.94
19.60
18.76
18.22
18.10
18.69
20.06
21.84
23.15
22.89
20.07
14.33
6.06
-3.70
-13.67
-22.81
-30.67
-37.46
-43.95
-51.14
-60.00
-71.13
-84.36
-98.46
-111.01
-118.84
-118.81
-108.94
-89.24
-61.90
-30.67
0.29
27.56
49.12
64.40
73.80
78.07
78.02
74.41
68.12
60.23
51.93
44.34
38.25
33.98
31.40
30.02
29.28
28.72
28.13
27.62
27.44
27.78
28.46
28.89
28.10
25.12
19.39
11.04
0.93
-9.67
-19.53
-27.99
-35.11
-41.66
-48.75
-57.49
-68.55
-81.88
-96.40
-109.98
-119.64
-122.24
-115.42
-98.46
-72.79
-41.71
-9.43
20.13
44.28
61.95
73.42
79.62
81.62
80.23
76.09
69.87
62.42
54.76
47.89
42.52
38.89
36.72
35.45
34.48
33.50
32.54
31.88
31.74
32.05
32.34
31.76
29.47
24.88
17.97
9.31
-0.14
-9.38
-17.68
-24.85
-31.22
-37.53
-44.66
-53.39
-64.22
-76.92
-90.35
-102.31
-109.82
-109.91
-100.61
-81.77
-55.42
-25.21
4.65
30.63
50.64
64.13
71.72
74.41
73.15
68.68
61.71
53.15
44.19
36.06
29.79
25.84
24.06
23.80
24.34
25.18
26.20
27.59
29.54
31.94
34.18
35.22
34.00
29.80
22.61
13.19
2.83
-7.12
-15.72
-22.72
-28.51
-34.01
-40.28
-48.26
-58.39
-70.33
-82.73
-93.21
-98.75
-96.55
-85.01
-64.48
-37.39
-7.54
20.99
45.01
62.84
74.32
80.20
81.51
79.10
73.64
65.77
56.40
46.68
37.86
30.95
26.39
24.00
23.10
22.89
22.82
22.75
22.93
23.65
24.94
26.32
26.87
25.57
21.67
15.11
6.51
-3.04
-12.39
-20.76
-27.95
-34.39
-40.82
-48.07
-56.86
-67.64
-80.33
-94.07
-107.06
-116.59
-119.60
-113.66
-97.87
-73.45
-43.53
-12.21
16.66
40.44
58.04
69.66
76.18
78.50
77.32
73.24
66.92
59.29
51.43
44.40
38.98
35.47
33.70
33.15
33.23
33.43
33.48
33.31
32.97
32.51
31.81
30.55
28.28
24.50
18.92
11.57
2.91
-6.33
-15.33
-23.51
-30.66
-36.95
-42.84
-48.94
-55.89
-64.22
-74.14
-85.31
-96.45
-105.30
-109.00
-105.00
-91.95
-70.47
-43.17
-13.87
13.54
36.18
52.74
63.30
68.76
70.25
68.66
64.69
58.99
52.36
45.63
39.61
34.83
31.46
29.39
28.35
28.08
28.41
29.24
30.49
32.02
33.55
34.70
35.03
34.11
31.61
27.43
21.69
14.78
7.23
-0.41
-7.72
-14.45
-20.60
-26.34
-31.99
-38.01
-44.90
-53.13
-62.80
-73.31
-83.06
-89.65
-90.43
-83.40
-68.07
-45.81
-19.53
7.17
31.07
50.02
63.15
70.67
73.35
72.13
67.90
61.52
53.81
45.61
37.74
30.95
25.84
22.68
21.40
21.63
22.75
24.17
25.41
26.22
26.53
26.37
25.68
24.29
21.91
18.22
13.05
6.44
-1.24
-9.44
-17.59
-25.27
-32.29
-38.70
-44.75
-50.73
-57.06
-64.25
-72.85
-82.98
-93.92
-103.82
-109.92
-109.29
-99.95
-81.73
-56.55
-27.85
0.44
25.13
44.33
57.59
65.34
68.49
67.96
64.59
59.29
53.01
46.70
41.11
36.63
33.30
30.95
29.36
28.46
28.28
28.88
30.16
31.79
33.22
33.86
33.21
31.06
27.52
22.87
17.51
11.70
5.56
-0.94
-7.84
-15.09
-22.46
-29.60
-36.13
-41.89
-46.98
-51.89
-57.40
-64.35
-73.25
-83.87
-94.90
-104.03
-108.38
-105.39
-93.70
-73.79
-47.99
-19.78
7.13
29.84
46.71
57.49
62.85
63.87
61.74
57.43
51.79
45.52
39.29
33.64
29.01
25.67
23.68
22.99
23.38
24.63
26.43
28.47
30.33
31.63
31.95
30.95
28.49
24.71
19.96
14.67
9.19
3.64
-2.08
-8.12
-14.54
-21.12
-27.50
-33.30
-38.38
-42.92
-47.45
-52.70
-59.34
-67.65
-77.12
-86.28
-92.78
-93.97
-87.72
-73.25
-51.62
-25.56
1.33
25.59
44.79
57.95
65.32
67.98
67.13
63.80
58.70
52.32
45.14
37.63
30.41
24.13
19.37
16.43
15.37
15.89
17.49
19.55
21.55
23.04
23.77
23.56
22.27
19.80
16.06
11.02
4.74
-2.52
-10.38
-18.35
-25.90
-32.63
-38.32
-43.04
-47.11
-51.11
-55.79
-61.88
-69.89
-79.65
-90.06
-99.00
-103.65
-101.35
-90.51
-71.33
-45.90
-17.62
9.78
33.26
51.10
62.86
69.05
70.61
68.52
63.65
56.85
48.92
40.69
32.93
26.30
21.25
18.02
16.60
16.74
18.00
19.89
21.97
23.93
25.60
26.82
27.33
26.67
24.31
19.83
13.19
4.80
-4.54
-13.96
-22.75
-30.55
-37.41
-43.59
-49.53
-55.78
-63.02
-71.84
-82.40
-93.86
-104.25
-110.68
-110.17
-100.74
-82.31
-56.78
-27.58
1.48
27.20
47.59
61.93
70.46
73.82
72.80
68.22
61.01
52.22
42.98
34.33
27.05
21.54
17.74
15.31
13.81
12.93
12.67
13.19
14.69
17.13
19.97
22.31
23.07
21.39
17.03
10.40
2.43
-5.78
-13.37
-20.03
-25.97
-31.81
-38.36
-46.43
-56.54
-68.57
-81.48
-93.18
-100.84
-101.61
-93.63
-76.76
-52.80
-25.00
2.90
27.67
47.25
60.79
68.39
70.68
68.51
62.85
54.80
45.61
36.48
28.33
21.72
16.78
13.35
11.23
10.32
10.61
12.09
14.53
17.33
19.58
20.28
18.65
14.36
7.65
-0.73
-9.82
-18.74
-26.97
-34.55
-42.11
-50.59
-60.91
-73.29
-86.83
-99.28
-107.51
-108.36
-99.70
-81.38
-55.32
-25.09
5.22
32.02
52.96
67.11
74.66
76.45
73.66
67.54
59.31
50.10
40.85
32.14
24.28
17.33
11.21
5.94
1.66
-1.45
-3.18
-3.56
-2.88
-1.82
-1.29
-2.20
-5.14
-10.16
-16.71
-23.85
-30.67
-36.73
-42.22
-47.91
-54.88
-64.01
-75.40
-88.05
-99.71
-107.35
-107.83
-99.01
-80.52
-54.09
-23.14
8.25
36.40
58.91
74.87
84.51
88.72
88.52
84.92
78.94
71.65
64.17
57.46
52.14
48.32
45.67
43.64
41.75
39.86
38.20
37.16
36.99
37.43
37.68
36.54
32.98
26.57
17.76
7.79
-1.90
-10.23
-16.94
-22.66
-28.65
-36.27
-46.52
-59.57
-74.51
-89.21
-100.55
-105.02
-99.81
-83.94
-58.85
-28.24
3.13
30.95
52.60
67.50
76.55
81.13
82.30
80.53
76.04
69.31
61.40
53.66
47.29
42.87
40.17
38.47
37.01
35.45
33.96
33.11
33.26
34.34
35.61
35.91
34.14
29.71
22.83
14.44
5.78
-2.06
-8.63
-14.21
-19.71
-26.34
-35.18
-46.79
-60.83
-75.82
-89.22
-97.83
-98.65
-89.85
-71.57
-45.98
-16.77
12.02
37.14
56.83
70.75
79.43
83.64
83.95
80.78
74.65
66.44
57.40
48.87
41.96
37.22
34.60
33.55
33.35
33.42
33.47
33.51
33.70
34.07
34.36
33.97
32.15
28.21
21.89
13.46
3.74
-6.22
-15.39
-23.17
-29.56
-35.17
-41.03
-48.28
-57.73
-69.59
-83.08
-96.36
-106.73
-111.24
-107.47
-94.47
-73.14
-46.13
-17.07
10.39
33.47
