BVP
64.000000
-0.00
-0.00
-0.00
-0.00
-0.00
-0.00
-0.00
-0.00
-0.00
-0.00
0.00
0.01
0.01
-0.00
-0.03
-0.05
-0.05
0.00
0.13
0.36
0.66
1.01
1.38
1.72
2.05
2.39
2.78
3.24
3.83
4.49
5.15
5.75
6.23
6.60
6.93
7.32
7.86
8.69
9.71
10.82
11.84
12.70
13.41
14.17
15.21
16.74
19.00
21.80
24.82
27.68
30.15
32.28
34.42
37.13
40.84
46.01
52.29
59.01
65.39
70.91
75.55
79.93
85.01
91.63
100.56
111.26
122.68
133.50
142.77
150.37
157.13
164.87
172.89
183.87
198.41
216.20
235.32
252.21
262.23
261.02
245.85
216.69
176.57
129.52
79.58
29.32
-20.57
-70.86
-122.55
-175.70
-228.68
-277.91
-319.24
-348.66
-363.74
-364.35
-352.73
-332.69
-308.16
-282.25
-256.50
-231.58
-207.77
-185.59
-165.70
-148.46
-133.56
-119.96
-106.33
-91.61
-75.65
-59.05
-42.90
-28.22
-15.50
-4.58
5.27
14.96
25.29
36.61
48.77
61.20
73.26
84.45
94.71
104.38
114.01
124.04
134.49
144.97
154.84
163.72
171.73
179.52
187.89
197.17
206.89
215.92
223.13
228.02
230.93
232.53
232.83
230.50
222.88
207.00
180.97
145.01
101.57
54.35
6.91
-38.44
-81.07
-121.60
-161.12
-200.55
-240.52
-281.64
-324.67
-370.33
-418.36
-466.58
-510.22
-542.50
-556.43
-547.04
-513.33
-458.49
-388.56
-310.13
-228.36
-146.55
-67.02
7.53
73.47
126.90
165.39
189.26
201.68
207.28
210.32
213.17
216.19
218.72
220.29
221.42
223.43
227.70
234.70
243.42
251.39
255.22
251.41
237.39
212.24
176.89
133.62
85.09
33.24
-21.28
-78.71
-138.91
-200.07
-258.28
-308.37
-345.96
-369.55
-381.41
-386.68
-390.72
-396.17
-401.34
-400.72
-387.79
-358.29
-312.47
-254.90
-192.20
-130.12
-71.36
-15.33
40.39
98.28
159.78
225.19
294.06
365.08
435.47
500.30
552.79
585.93
594.95
579.22
542.59
491.96
434.82
377.03
321.89
270.62
223.26
179.43
138.48
99.18
59.53
17.08
-30.05
-81.98
-136.39
-188.60
-232.74
-263.80
-279.31
-280.33
-270.85
-256.13
-240.65
-226.74
-214.49
-202.72
-190.38
-177.36
-164.48
-152.77
-142.72
-133.91
-125.30
-115.89
-105.24
-93.73
-82.34
-72.13
-63.77
-57.24
-51.95
-46.98
-41.65
-35.68
-29.41
-23.48
-18.53
-14.85
-12.27
-10.26
-8.21
-5.75
-2.85
0.20
2.95
5.10
6.57
7.52
8.24
8.99
9.88
10.91
11.97
12.95
13.79
14.49
15.11
15.70
16.31
16.91
17.44
17.76
17.70
17.07
15.78
13.82
11.31
8.45
5.50
2.71
0.31
-1.53
-2.74
-3.37
-3.56
-3.46
-3.22
-2.91
-2.55
-2.17
-1.87
-1.76
-1.94
-2.42
-3.06
-3.68
-4.09
-4.21
-4.08
-3.75
-3.32
-2.79
-2.15
-1.35
-0.40
0.64
1.64
2.44
2.92
3.03
2.86
2.57
2.34
2.25
2.29
2.34
2.28
2.11
1.95
1.95
2.22
2.71
3.24
3.56
3.56
3.26
2.87
2.60
2.59
2.85
3.28
3.75
4.14
4.43
4.57
4.54
4.31
3.90
3.44
3.11
3.11
3.51
4.29
5.25
6.17
6.88
7.31
7.48
7.47
7.35
7.13
6.82
6.41
5.93
5.43
4.92
4.43
3.90
3.27
2.53
1.70
0.89
0.21
-0.27
-0.54
-0.66
-0.72
-0.79
-0.88
-0.99
-1.08
-1.11
-1.06
-0.90
-0.67
-0.40
-0.16
-0.05
-0.13
-0.39
-0.75
-1.03
-1.07
-0.77
-0.13
0.71
1.59
2.35
2.89
3.20
3.32
3.36
3.40
3.51
3.69
3.90
4.05
4.08
3.93
3.61
3.17
2.66
2.15
1.68
1.33
1.14
1.18
1.44
1.91
2.47
2.99
3.34
3.45
3.32
3.01
2.60
2.16
1.74
1.33
0.95
0.59
0.29
0.10
0.04
0.11
0.25
0.38
0.43
0.40
0.33
0.28
0.29
0.35
0.40
0.38
0.25
0.02
-0.23
-0.42
-0.50
-0.43
-0.23
0.07
0.46
0.93
1.45
1.97
2.42
2.73
2.90
2.94
2.91
2.84
2.69
2.43
2.02
1.48
0.94
0.55
0.43
0.58
0.90
1.23
1.45
1.52
1.48
1.39
1.30
1.19
1.07
0.91
0.68
0.40
0.10
-0.17
-0.33
-0.35
-0.28
-0.18
-0.15
-0.23
-0.39
-0.56
-0.65
-0.66
-0.65
-0.69
-0.80
-0.95
-1.04
-0.99
-0.80
-0.54
-0.32
-0.21
-0.22
-0.31
-0.36
-0.26
0.06
0.61
1.32
2.01
2.53
2.77
2.73
2.55
2.38
2.31
2.31
2.28
2.06
1.62
1.02
0.41
-0.04
-0.25
-0.19
0.11
0.57
1.16
1.80
2.39
2.83
3.02
2.99
2.81
2.59
2.43
2.31
2.16
1.89
1.43
0.81
0.09
-0.61
-1.19
-1.60
-1.84
-1.90
-1.81
-1.59
-1.25
-0.83
-0.39
0.01
0.30
0.47
0.47
0.34
0.11
-0.17
-0.45
-0.69
-0.86
-0.97
-1.02
-1.08
-1.15
-1.20
-1.15
-0.91
-0.46
0.12
0.67
1.02
1.09
0.92
0.65
0.42
0.32
0.31
0.29
0.16
-0.06
-0.32
-0.52
-0.58
-0.52
-0.40
-0.30
-0.26
-0.28
-0.32
-0.34
-0.33
-0.27
-0.20
-0.13
-0.05
0.05
0.19
0.36
0.52
0.59
0.51
0.24
-0.13
-0.48
-0.68
-0.67
-0.50
-0.26
-0.10
-0.08
-0.22
-0.45
-0.67
-0.77
-0.72
-0.54
-0.28
-0.05
0.08
0.04
-0.16
-0.48
-0.84
-1.17
-1.41
-1.51
-1.47
-1.32
-1.07
-0.75
-0.40
-0.06
0.22
0.38
0.40
0.27
0.09
-0.04
-0.07
0.01
0.11
0.16
0.15
0.17
0.36
0.80
1.51
2.39
3.32
4.19
4.94
5.49
5.76
5.62
5.00
3.93
2.57
1.13
-0.14
-1.14
-1.83
-2.27
-2.52
-2.60
-2.49
-2.14
-1.58
-0.88
-0.16
0.46
0.87
1.06
1.08
1.00
0.90
0.81
0.72
0.55
0.24
-0.22
-0.77
-1.24
-1.47
-1.33
-0.86
-0.21
0.41
0.85
1.08
1.19
1.36
1.66
2.05
2.35
2.38
2.03
1.39
0.64
-0.01
-0.42
-0.57
-0.54
-0.47
-0.45
-0.53
-0.72
-0.93
-1.05
-1.01
-0.78
-0.41
0.02
0.36
0.54
0.54
0.42
0.25
0.08
-0.11
-0.32
-0.55
-0.73
-0.77
-0.63
-0.40
-0.25
-0.39
-0.85
-1.54
-2.20
-2.59
-2.59
-2.27
-1.86
-1.59
-1.58
-1.83
-2.23
-2.64
-2.98
-3.20
-3.33
-3.38
-3.33
-3.15
-2.82
-2.30
-1.62
-0.85
-0.10
0.51
0.93
1.15
1.20
1.19
1.17
1.20
1.31
1.47
1.65
1.79
1.85
1.83
1.78
1.78
1.88
2.02
2.12
2.07
1.87
1.63
1.49
1.57
1.84
2.16
2.35
2.31
2.08
1.80
1.60
1.55
1.59
1.60
1.48
1.21
0.84
0.46
0.16
-0.03
-0.14
-0.25
-0.40
-0.62
-0.91
-1.22
-1.56
-1.92
-2.31
-2.71
-3.02
-3.14
-2.93
-2.38
-1.54
-0.57
0.32
0.97
1.31
1.34
1.17
0.95
0.81
0.88
1.18
1.70
2.31
2.87
3.26
3.40
3.32
3.09
2.78
2.46
2.15
1.83
1.49
1.16
0.88
0.66
0.49
0.29
-0.02
-0.50
-1.13
-1.80
-2.39
-2.79
-2.99
-3.02
-2.98
-2.89
-2.76
-2.53
-2.19
-1.74
-1.32
-1.04
-1.02
-1.27
-1.67
-2.05
-2.20
-1.98
-1.38
-0.47
0.59
1.64
2.58
3.36
3.95
4.30
4.38
4.17
3.68
3.03
2.36
1.85
1.59
1.61
1.79
1.99
2.06
1.95
1.66
1.29
0.96
0.77
0.75
0.87
1.05
1.20
1.26
1.16
0.91
0.49
-0.09
-0.77
-1.46
-2.00
-2.27
-2.21
-1.85
-1.36
-0.94
-0.71
-0.73
-0.92
-1.17
-1.39
-1.55
-1.68
-1.83
-2.03
-2.23
-2.37
-2.36
-2.20
-1.91
-1.58
-1.33
-1.23
-1.36
-1.69
-2.18
-2.74
-3.34
-3.94
-4.59
-5.35
-6.23
-7.19
-8.11
-8.84
-9.27
-9.43
-9.51
-9.81
-10.62
-12.09
-14.15
-16.52
-18.82
-20.76
-22.33
-23.81
-25.71
-28.53
-32.51
-37.50
-42.96
-48.20
-52.67
-56.29
-59.51
-63.19
-68.18
-74.95
-83.33
-92.52
-101.48
-109.39
-116.06
-122.03
-128.28
-135.84
-145.49
-157.71
-172.56
-189.60
-207.47
-223.65
-234.68
-236.98
-228.06
-207.46
-176.87
-139.29
-97.57
-53.40
-7.36
39.99
86.97
130.30
165.96
190.86
204.25
208.04
205.67
200.39
193.87
185.92
175.34
161.33
144.48
126.74
110.55
97.68
88.46
81.75
75.71
68.73
59.91
49.24
37.28
25.00
13.92
6.34
5.33
13.94
33.94
64.59
102.21
141.05
175.03
199.75
213.62
217.87
215.51
210.02
204.28
200.32
199.32
201.90
208.30
218.15
229.99
241.02
247.44
245.71
234.31
214.82
191.59
169.84
152.97
140.58
128.43
110.52
82.28
43.14
-2.84
-48.67
-87.28
-114.16
-128.42
-132.10
-128.52
-120.73
-110.80
-100.05
-89.64
-81.00
-75.65
-74.60
-77.67
-83.30
-89.01
-92.41
-92.14
-88.46
-83.14
-78.76
-77.69
-81.15
-88.68
-98.29
-107.15
-112.68
-113.54
-109.94
-103.36
-95.67
-88.32
-81.88
-76.17
-70.67
-65.05
-59.34
-53.85
-48.93
-44.72
-41.09
-37.67
-34.14
-30.35
-26.42
-22.73
-19.72
-17.72
-16.78
-16.69
-17.04
-17.46
-17.70
-17.70
-17.57
-17.39
-17.18
-16.85
-16.26
-15.34
-14.13
-12.81
-11.60
-10.74
-10.32
-10.32
-10.61
-10.98
-11.22
-11.22
-10.97
-10.57
-10.18
-9.93
-9.88
-9.92
-9.92
-9.72
-9.23
-8.43
-7.38
-6.14
-4.81
-3.54
-2.43
-1.58
-1.02
-0.65
-0.37
-0.02
0.45
1.00
1.53
1.93
2.15
2.23
2.22
2.21
2.20
2.16
2.03
1.76
1.34
0.82
0.30
-0.13
-0.41
-0.50
-0.47
-0.41
-0.40
-0.51
-0.74
-0.99
-1.17
-1.19
-1.07
-0.96
-1.02
-1.41
-2.13
-3.04
-3.90
-4.45
-4.51
-4.02
-3.09
-1.87
-0.54
0.76
1.86
2.63
2.93
2.72
2.07
1.18
0.33
-0.24
-0.46
-0.40
-0.27
-0.27
-0.52
-0.98
-1.49
-1.86
-1.94
-1.68
-1.13
-0.38
0.49
1.43
2.43
3.50
4.58
5.53
6.17
6.35
6.06
5.41
4.63
3.98
3.59
3.48
3.55
3.66
3.72
3.68
3.59
3.52
3.53
3.59
3.59
3.41
2.97
2.31
1.57
0.92
0.52
0.36
0.34
0.29
0.08
-0.29
-0.77
-1.22
-1.56
-1.77
-1.86
-1.88
-1.87
-1.86
-1.83
-1.80
-1.75
-1.71
-1.70
-1.76
-1.89
-2.07
-2.23
-2.29
-2.19
-1.90
-1.48
-0.99
-0.55
-0.26
-0.14
-0.17
-0.26
-0.28
-0.19
0.03
0.31
0.52
0.59
0.44
0.11
-0.32
-0.73
-1.01
-1.11
-1.05
-0.89
-0.73
-0.67
-0.74
-0.91
-1.08
-1.13
-1.03
-0.77
-0.46
-0.21
-0.06
-0.03
-0.04
-0.04
-0.02
-0.00
-0.04
-0.17
-0.40
-0.68
-0.90
-0.99
-0.91
-0.68
-0.39
-0.15
-0.06
-0.11
-0.26
-0.38
-0.39
-0.27
-0.06
0.19
0.40
0.59
0.76
0.94
1.10
1.22
1.27
1.25
1.22
1.22
1.26
1.31
1.30
1.14
0.79
0.22
-0.54
-1.43
-2.34
-3.20
-3.89
-4.39
-4.70
-4.85
-4.92
-4.98
-5.09
-5.31
-5.72
-6.39
-7.38
-8.66
-10.08
-11.45
-12.57
-13.42
-14.17
-15.12
-16.55
-18.54
-20.94
-23.43
-25.72
-27.72
-29.67
-31.99
-35.11
-39.26
-44.35
-49.99
-55.71
-61.13
-66.18
-71.11
-76.37
-82.42
-89.54
-97.68
-106.58
-115.79
-124.87
-133.51
-141.66
-149.57
-157.99
-168.21
-181.67
-199.20
-220.00
-241.03
-257.37
-263.65
-256.01
-233.73
-199.50
-158.29
-115.24
-73.86
-35.13
1.98
39.38
78.78
121.21
166.87
215.18
264.52
312.07
354.10
386.92
408.18
417.74
417.76
411.86
403.80
396.29
390.50
386.28
382.70
378.83
374.23
368.89
362.93
355.95
346.77
333.52
314.39
288.51
256.59
220.69
183.36
146.43
110.32
74.10
36.23
-4.49
-48.30
-94.21
-140.04
-182.76
-218.98
-245.75
-261.45
-266.31
-262.42
-252.80
-240.36
-227.01
-213.54
-200.08
-186.79
-174.18
-162.94
-153.41
-145.25
-137.48
-129.03
-119.31
-108.51
-97.51
-87.43
-79.10
-72.68
-67.66
-63.13
-58.24
-52.53
-46.14
-39.64
-33.82
-29.22
-26.01
-23.84
-22.10
-20.19
-17.73
-14.74
-11.53
-8.61
-6.40
-5.06
-4.44
-4.16
-3.78
-2.99
-1.75
-0.28
1.08
2.01
2.41
2.36
2.04
1.66
1.29
0.92
0.51
0.04
-0.45
-0.84
-1.06
-1.08
-0.93
-0.72
-0.53
-0.44
-0.48
-0.63
-0.86
-1.10
-1.30
-1.39
-1.33
-1.13
-0.83
-0.50
-0.21
-0.01
0.08
0.10
0.05
-0.05
-0.21
-0.40
-0.60
-0.75
-0.82
-0.77
-0.60
-0.32
0.06
0.51
1.00
1.45
1.77
1.89
1.82
1.60
1.32
1.01
0.68
0.32
-0.04
-0.32
-0.44
-0.36
-0.10
0.25
0.63
1.03
1.44
1.83
2.12
2.22
2.06
1.69
1.21
0.77
0.43
0.17
-0.07
-0.30
-0.53
-0.71
-0.77
-0.74
-0.64
-0.54
-0.49
-0.50
-0.56
-0.67
-0.83
-1.03
-1.21
-1.30
-1.28
-1.14
-0.90
-0.63
-0.39
-0.20
-0.07
0.04
0.17
0.36
0.59
0.87
1.20
1.56
1.91
2.17
2.23
2.01
1.51
0.84
0.18
-0.29
-0.48
-0.38
-0.10
0.21
0.42
0.44
0.28
-0.02
-0.36
-0.64
-0.82
-0.90
-0.94
-0.99
-1.04
-1.03
-0.88
-0.56
-0.14
0.25
0.49
0.51
0.32
0.01
-0.36
-0.76
-1.16
-1.52
-1.77
-1.82
-1.60
-1.14
-0.56
-0.02
0.35
0.53
0.55
0.58
0.73
1.08
1.57
2.03
2.25
2.09
1.53
0.73
-0.06
-0.61
-0.83
-0.73
-0.44
-0.08
0.25
0.54
0.76
0.86
0.82
0.63
0.38
0.19
0.15
0.25
0.39
0.43
0.27
-0.07
-0.47
-0.80
-0.99
-1.05
-1.03
-1.01
-0.99
-0.92
-0.78
-0.60
-0.47
-0.48
-0.66
-0.94
-1.19
-1.29
-1.18
-0.96
-0.75
-0.66
-0.72
-0.84
-0.89
-0.74
-0.39
0.11
0.61
0.98
1.15
1.13
0.98
0.77
0.57
0.36
0.13
-0.14
-0.43
-0.65
-0.75
-0.66
-0.41
-0.04
0.35
0.71
1.00
1.19
1.27
1.19
0.94
0.51
-0.01
-0.51
-0.85
-0.95
-0.84
-0.62
-0.41
-0.32
-0.36
-0.46
-0.55
-0.55
-0.42
-0.23
-0.01
0.18
0.33
0.42
0.45
0.36
0.13
-0.24
-0.67
-1.04
-1.20
-1.08
-0.71
-0.20
0.28
0.61
0.77
0.80
0.80
0.78
0.74
0.60
0.37
0.09
-0.13
-0.18
-0.04
0.21
0.47
0.64
0.74
0.83
0.96
1.14
1.27
1.26
1.05
0.71
0.35
0.09
-0.05
-0.09
-0.12
-0.17
-0.22
-0.23
-0.17
-0.07
0.01
-0.03
-0.20
-0.42
-0.56
-0.51
-0.25
0.14
0.48
0.64
0.57
0.32
0.06
-0.12
-0.14
-0.05
0.07
0.18
0.32
0.54
0.91
1.39
1.86
2.19
2.30
2.19
1.94
1.66
1.41
1.22
1.03
0.81
0.54
0.21
-0.18
-0.65
-1.21
-1.89
-2.71
-3.63
-4.59
-5.54
-6.38
-7.05
-7.52
-7.80
-7.97
-8.05
-8.03
-7.82
-7.28
-6.36
-5.09
-3.63
-2.24
-1.13
-0.39
0.05
0.33
0.58
0.85
1.12
1.33
1.43
1.45
1.41
1.38
1.40
1.44
1.43
1.31
1.02
0.56
0.04
-0.40
-0.62
-0.51
-0.09
0.54
1.25
1.89
2.36
2.64
2.75
2.73
2.68
2.71
2.92
3.34
3.92
4.54
5.04
5.29
5.27
5.01
4.63
4.27
3.97
3.74
3.49
3.14
2.61
1.90
1.05
0.16
-0.70
-1.45
-2.06
-2.54
-2.87
-3.07
-3.14
-3.08
-2.93
-2.70
-2.43
-2.11
-1.75
-1.35
-0.95
-0.59
-0.33
-0.19
-0.15
-0.11
0.01
0.28
0.70
1.16
1.54
1.73
1.74
1.63
1.57
1.68
2.02
2.56
3.16
3.67
3.98
4.02
3.81
3.40
2.86
2.31
1.87
1.65
1.70
1.97
2.33
2.62
2.74
2.64
2.36
2.00
1.66
1.38
1.18
1.03
0.91
0.79
0.66
0.50
0.28
0.00
-0.33
-0.68
-0.97
-1.15
-1.16
-1.02
-0.82
-0.70
-0.76
-1.05
-1.46
-1.82
-1.94
-1.72
-1.23
-0.65
-0.19
0.01
-0.07
-0.35
-0.65
-0.86
-0.93
-0.86
-0.66
-0.35
0.06
0.53
0.95
1.24
1.30
1.12
0.79
0.43
0.18
0.09
0.16
0.30
0.44
0.53
0.56
0.53
0.48
0.40
0.31
0.23
0.19
0.22
0.35
0.54
0.72
0.77
0.61
0.21
-0.39
-1.06
-1.63
-1.95
-1.95
-1.66
-1.19
-0.68
-0.27
-0.04
-0.01
-0.13
-0.35
-0.63
-0.90
-1.14
-1.31
-1.39
-1.40
-1.38
-1.41
-1.53
-1.70
-1.88
-1.94
-1.83
-1.53
-1.10
-0.65
-0.29
-0.06
0.05
0.10
0.11
0.09
-0.01
-0.22
-0.54
-0.89
-1.14
-1.18
-0.98
-0.55
-0.00
0.56
1.06
1.41
1.60
1.59
1.38
1.01
0.55
0.11
-0.19
-0.28
-0.15
0.10
0.35
0.46
0.38
0.12
-0.23
-0.56
-0.76
-0.78
-0.62
-0.34
-0.06
0.14
0.14
-0.07
-0.46
-0.96
-1.42
-1.74
-1.86
-1.78
-1.58
-1.33
-1.11
-0.90
-0.72
-0.54
-0.36
-0.20
-0.08
-0.02
-0.02
-0.05
-0.10
-0.16
-0.23
-0.33
-0.47
-0.65
-0.83
-0.98
-1.05
-0.98
-0.76
-0.43
-0.01
0.43
0.80
1.06
1.18
1.17
1.07
0.94
0.82
0.71
0.59
0.45
0.28
0.09
-0.06
-0.18
-0.27
-0.38
-0.54
-0.74
-0.94
-1.05
-1.03
-0.89
-0.68
-0.47
-0.34
-0.30
-0.31
-0.33
-0.33
-0.29
-0.25
-0.23
-0.20
-0.11
0.08
0.41
0.85
1.29
1.64
1.82
1.80
1.61
1.30
0.89
0.44
-0.02
-0.40
-0.58
-0.51
-0.19
0.29
0.78
1.12
1.26
1.19
0.99
0.74
0.52
0.36
0.28
0.23
0.18
0.10
-0.04
-0.20
-0.33
-0.39
-0.37
-0.32
-0.32
-0.40
-0.57
-0.77
-0.97
-1.11
-1.19
-1.19
-1.10
-0.87
-0.51
-0.05
0.43
0.82
1.06
1.08
0.90
0.60
0.33
0.22
0.38
0.77
1.27
1.66
1.78
1.60
1.28
1.02
0.96
1.12
1.38
1.56
1.59
1.50
1.36
1.24
1.09
0.85
0.47
-0.00
-0.45
-0.76
-0.90
-0.93
-0.94
-0.98
-1.03
-1.04
-0.97
-0.83
-0.68
-0.58
-0.55
-0.58
-0.61
-0.63
-0.61
-0.59
-0.54
-0.50
-0.47
-0.47
-0.56
-0.78
-1.12
-1.51
-1.85
-2.03
-1.96
-1.66
-1.17
-0.56
0.03
0.51
0.79
0.86
0.74
0.50
0.21
-0.08
-0.33
-0.55
-0.75
-0.95
-1.19
-1.45
-1.71
-1.93
-2.04
-2.00
-1.77
-1.33
-0.74
-0.12
0.43
0.79
0.96
0.95
0.83
0.67
0.51
0.37
0.27
0.25
0.36
0.59
0.91
1.19
1.33
1.30
1.14
0.96
0.85
0.84
0.88
0.90
0.88
0.84
0.83
0.91
1.04
1.16
1.18
1.06
0.82
0.54
0.29
0.11
0.00
-0.04
-0.04
-0.06
-0.11
-0.21
-0.34
-0.44
-0.46
-0.39
-0.26
-0.14
-0.12
-0.20
-0.34
-0.43
-0.41
-0.32
-0.23
-0.25
-0.42
-0.70
-0.98
-1.13
-1.08
-0.84
-0.50
-0.17
0.05
0.13
0.11
0.03
-0.04
-0.06
-0.04
0.00
0.06
0.13
0.23
0.38
0.59
0.83
1.04
1.17
1.17
1.06
0.87
0.66
0.42
0.16
-0.14
-0.50
-0.86
-1.13
-1.23
-1.10
-0.74
-0.24
0.27
0.67
0.92
1.02
1.02
0.98
0.92
0.84
0.71
0.54
0.34
0.16
0.01
-0.08
-0.14
-0.21
-0.30
-0.40
-0.49
-0.53
-0.51
-0.42
-0.25
-0.02
0.23
0.44
0.57
0.59
0.51
0.38
0.26
0.19
0.18
0.24
0.37
0.53
0.69
0.80
0.78
0.57
0.18
-0.33
-0.83
-1.18
-1.29
-1.14
-0.81
-0.41
-0.02
0.31
0.61
0.91
1.20
1.41
1.45
1.24
0.84
0.37
0.01
-0.10
0.03
0.30
0.51
0.54
0.32
-0.06
-0.49
-0.85
-1.06
-1.09
-0.97
-0.72
-0.43
-0.16
0.03
0.10
0.06
-0.06
-0.20
-0.32
-0.35
-0.26
-0.03
0.30
0.66
0.97
1.14
1.12
0.92
0.60
0.25
-0.07
-0.31
-0.44
-0.47
-0.40
-0.26
-0.11
-0.00
0.02
-0.04
-0.14
-0.18
-0.11
0.07
0.34
0.60
0.81
0.93
0.98
0.98
0.91
0.75
0.44
0.01
-0.48
-0.90
-1.11
-1.09
-0.87
-0.60
-0.42
-0.38
-0.45
-0.54
-0.54
-0.43
-0.25
-0.10
-0.11
-0.30
-0.70
-1.20
-1.70
-2.06
-2.16
-1.96
-1.48
-0.83
-0.16
0.41
0.80
1.06
1.25
1.45
1.67
1.83
1.88
1.79
1.59
1.37
1.20
1.08
1.00
0.89
0.71
0.44
0.13
-0.14
-0.32
-0.36
-0.27
-0.11
0.03
0.06
-0.06
-0.29
-0.54
-0.71
-0.76
-0.73
-0.71
-0.78
-0.98
-1.22
-1.40
-1.41
-1.20
-0.82
-0.38
0.02
0.30
0.44
0.45
0.35
0.16
-0.11
-0.42
-0.74
-0.98
-1.10
-1.08
-0.96
-0.80
-0.64
-0.51
-0.38
-0.20
0.04
0.30
0.50
0.57
0.49
0.28
0.01
-0.25
-0.42
-0.45
-0.32
-0.04
0.35
0.75
1.07
1.22
1.17
0.95
0.66
0.40
0.25
0.25
0.35
0.47
0.54
0.52
0.41
0.29
0.20
0.19
0.23
0.29
0.30
0.23
0.09
-0.09
-0.25
-0.37
-0.44
-0.52
-0.67
-0.94
-1.30
-1.63
-1.79
-1.69
-1.30
-0.72
-0.10
0.43
0.82
1.10
1.31
1.48
1.60
1.63
1.54
1.31
0.93
0.45
-0.05
-0.47
-0.72
-0.74
-0.55
-0.26
0.00
0.13
0.12
0.01
-0.07
-0.03
0.14
0.40
0.65
0.79
0.75
0.55
0.26
-0.03
-0.26
-0.43
-0.59
-0.77
-0.96
-1.13
-1.17
-1.05
-0.85
-0.68
-0.69
-0.92
-1.30
-1.73
-2.10
-2.38
-2.62
-2.84
-3.04
-3.16
-3.11
-2.86
-2.49
-2.11
-1.86
-1.82
-2.00
-2.30
-2.63
-2.90
-3.09
-3.24
-3.47
-3.87
-4.52
-5.41
-6.42
-7.36
-7.97
-7.95
-7.11
-5.35
-2.75
0.40
3.71
6.72
9.07
10.56
11.16
10.96
10.15
8.91
7.44
5.95
4.62
3.57
2.82
2.28
1.83
1.39
0.94
0.51
0.17
-0.10
-0.36
-0.68
-1.07
-1.54
-2.02
-2.47
-2.86
-3.16
-3.30
-3.18
-2.69
-1.82
-0.65
0.69
2.02
3.23
4.25
5.05
5.59
5.78
5.58
5.00
4.13
3.16
2.25
1.54
1.09
0.90
0.93
1.12
1.45
1.85
2.29
2.72
3.09
3.32
3.33
3.08
2.55
1.80
0.97
0.19
-0.43
-0.88
-1.21
-1.46
-1.64
-1.71
-1.63
-1.40
-1.15
-1.02
-1.18
-1.67
-2.43
-3.25
-3.91
-4.22
-4.16
-3.82
-3.39
-3.09
-3.05
-3.32
-3.82
-4.49
-5.33
-6.41
-7.90
-9.93
-12.52
-15.47
-18.42
-20.96
-22.75
-23.70
-24.03
-24.23
-24.91
-26.54
-29.22
-32.61
-35.99
-38.55
-39.84
-39.97
-39.70
-40.10
-42.11
-46.03
-51.32
-56.79
-61.08
-63.30
-63.39
-62.23
-61.34
-62.37
-66.72
-74.96
-86.43
-98.90
-108.63
-111.06
-102.08
-79.64
-44.79
-1.88
42.58
81.90
111.14
128.30
134.27
131.80
124.14
114.07
103.51
93.65
85.27
78.89
74.72
72.47
71.40
70.41
68.52
65.21
60.68
55.70
51.29
48.24
46.80
46.57
46.71
46.28
44.65
41.73
38.02
34.41
31.78
30.72
31.23
32.76
34.43
35.32
34.79
32.54
28.49
22.71
15.28
6.41
-3.41
-13.31
-22.22
-29.11
-33.42
-35.16
-34.86
-33.28
-31.11
-28.77
-26.45
-24.28
-22.36
-20.78
-19.54
-18.48
-17.33
-15.88
-14.08
-12.08
-10.19
-8.69
-7.71
-7.23
-7.06
-6.98
-6.81
-6.46
-5.93
-5.32
-4.74
-4.31
-4.07
-4.02
-4.03
-3.99
-3.78
-3.40
-2.94
-2.56
-2.39
-2.46
-2.73
-3.04
-3.21
-3.10
-2.68
-2.02
-1.26
-0.58
-0.07
0.22
0.30
0.21
-0.06
-0.50
-1.09
-1.76
-2.42
-2.98
-3.40
-3.71
-3.99
-4.33
-4.74
-5.20
-5.67
-6.16
-6.75
-7.56
-8.70
-10.21
-12.01
-13.87
-15.55
-16.82
-17.66
-18.25
-18.95
-20.13
-22.05
-24.71
-27.83
-31.03
-33.92
-36.30
-38.27
-40.19
-42.58
-46.02
-50.93
-57.39
-64.92
-72.49
-78.78
-82.69
-83.95
-83.42
-82.85
-84.26
-89.04
-97.42
-108.53
-120.87
-133.25
-145.23
-157.31
-170.56
-186.20
-205.09
-227.39
-252.15
-277.18
-299.18
-314.41
-319.89
-314.44
-299.14
-276.91
-251.29
-225.07
-199.48
-174.30
-148.61
-121.77
-93.91
-65.70
-37.87
-10.66
16.37
44.02
72.99
103.75
136.54
171.53
208.65
247.21
285.24
319.48
345.98
361.36
364.15
355.38
338.20
316.59
293.99
272.46
252.66
234.48
217.76
202.53
188.92
176.78
165.60
154.61
143.24
131.40
119.49
108.30
98.53
90.53
84.10
78.64
73.41
67.88
61.92
55.87
50.30
45.77
42.56
40.61
39.54
38.91
38.39
37.87
37.45
37.36
37.79
38.88
40.66
43.11
46.20
49.87
54.04
58.61
63.49
68.60
73.96
79.66
85.84
92.61
100.07
108.29
117.35
127.28
137.90
148.75
159.02
167.76
174.16
177.77
178.55
176.86
173.19
168.04
161.67
154.07
144.95
133.84
120.36
104.43
86.45
67.17
47.53
28.36
10.30
-6.20
-20.84
-33.51
-44.40
-53.83
-62.09
-69.00
-73.62
-74.35
-69.38
-57.69
-39.93
-18.87
0.77
13.28
13.60
-1.02
-29.74
-67.87
-108.00
-142.18
-164.48
-172.67
-168.42
-155.84
-139.29
-121.76
-104.32
-86.72
-68.60
-50.29
-32.54
-15.89
-0.17
15.27
30.49
44.26
54.37
58.92
57.64
52.14
44.84
37.23
28.74
17.34
1.39
-18.50
-39.08
-55.89
-65.76
-68.64
-67.44
-66.17
-67.57
-71.75
-76.66
-79.84
-80.15
-78.51
-77.36
-78.98
-84.18
-91.69
-98.69
-102.22
-100.55
-93.98
-84.48
-74.67
-66.51
-60.52
-55.91
-51.29
-45.70
-39.18
-32.65
-27.30
-23.84
-22.11
-21.27
-20.33
-18.72
-16.52
-14.23
-12.32
-10.81
-9.26
-7.00
-3.61
0.80
5.57
9.74
12.42
13.09
11.64
8.29
3.53
-1.99
-7.50
-12.13
-15.12
-15.96
-14.59
-11.37
-6.99
-2.22
2.28
6.09
9.09
11.36
13.12
14.56
15.74
16.47
16.31
14.72
11.25
5.73
-1.66
-10.45
-19.98
-29.55
-38.54
-46.38
-52.56
-56.71
-58.67
-58.53
-56.71
-53.80
-50.45
-47.19
-44.38
-42.19
-40.59
-39.44
-38.51
-37.53
-36.23
-34.43
-31.98
-28.86
-25.11
-20.90
-16.49
-12.25
-8.53
-5.57
-3.40
-1.81
-0.49
0.81
2.22
3.66
4.92
5.81
6.21
6.13
5.65
4.95
4.16
3.40
2.70
2.01
1.25
0.35
-0.70
-1.78
-2.72
-3.34
-3.57
-3.48
-3.25
-3.12
-3.31
-3.91
-4.86
-5.98
-7.07
-7.94
-8.56
-8.97
-9.31
-9.62
-9.81
-9.69
-9.05
-7.83
-6.22
-4.60
-3.39
-2.86
-2.97
-3.39
-3.60
-3.05
-1.27
2.01
6.84
13.03
20.19
27.75
35.11
41.76
47.42
52.06
55.80
58.72
60.86
62.14
62.62
62.58
62.62
63.46
65.57
68.85
72.48
75.16
75.65
73.31
68.47
62.35
56.67
53.07
52.78
56.34
63.47
72.71
81.17
84.72
79.03
61.27
31.70
-5.74
-44.52
-77.74
-100.67
-112.11
-114.05
-110.08
-103.44
-95.93
-88.01
-79.71
-71.44
-64.19
-59.00
-56.32
-55.55
-55.33
-54.17
-51.13
-46.20
-40.29
-34.68
-30.45
-27.99
-26.94
-26.39
-25.36
-23.24
-20.09
-16.49
-13.23
-10.90
-9.60
-8.98
-8.42
-7.38
-5.71
-3.66
-1.75
-0.47
-0.07
-0.39
-1.02
-1.43
-1.23
-0.35
1.00
2.43
3.59
4.29
4.59
4.65
4.64
4.63
4.59
4.46
4.25
4.07
4.05
4.27
4.66
5.02
5.11
4.76
3.95
2.83
1.60
0.44
-0.53
-1.32
-1.96
-2.46
-2.82
-2.99
-2.97
-2.80
-2.55
-2.30
-2.08
-1.90
-1.75
-1.63
-1.57
-1.61
-1.79
-2.11
-2.55
-3.05
-3.57
-4.03
-4.41
-4.68
-4.85
-4.94
-4.99
-5.01
-5.00
-4.90
-4.71
-4.42
-4.04
-3.62
-3.18
-2.76
-2.35
-1.99
-1.71
-1.55
-1.49
-1.49
-1.45
-1.32
-1.07
-0.77
-0.52
-0.41
-0.45
-0.57
-0.67
-0.64
-0.48
-0.26
-0.09
-0.09
-0.26
-0.54
-0.80
-0.91
-0.86
-0.70
-0.53
-0.43
-0.39
-0.37
-0.30
-0.17
-0.00
0.11
0.14
0.08
-0.02
-0.12
-0.22
-0.35
-0.53
-0.73
-0.86
-0.82
-0.57
-0.17
0.26
0.58
0.74
0.75
0.70
0.69
0.76
0.89
0.99
1.01
0.92
0.75
0.56
0.36
0.16
-0.04
-0.23
-0.38
-0.43
-0.38
-0.23
-0.03
0.17
0.35
0.50
0.63
0.71
0.73
0.66
0.48
0.22
-0.08
-0.34
-0.51
-0.55
-0.47
-0.32
-0.20
-0.23
-0.48
-0.93
-1.47
-1.93
-2.18
-2.16
-1.93
-1.59
-1.21
-0.84
-0.44
-0.04
0.33
0.57
0.60
0.43
0.17
0.01
0.09
0.43
0.91
1.31
1.44
1.25
0.77
0.17
-0.40
-0.83
-1.06
-1.12
-1.06
-0.94
-0.83
-0.82
-0.98
-1.34
-1.91
-2.62
-3.37
-4.06
-4.61
-5.04
-5.44
-5.93
-6.64
-7.59
-8.76
-10.05
-11.36
-12.57
-13.65
-14.61
-15.56
-16.68
-18.18
-20.18
-22.68
-25.51
-28.47
-31.38
-34.24
-37.23
-40.60
-44.56
-49.18
-54.37
-59.92
-65.63
-71.46
-77.53
-84.14
-91.68
-100.48
-110.67
-122.02
-134.09
-146.27
-158.08
-169.35
-180.32
-191.59
-203.95
-218.21
-234.93
-254.08
-274.69
-294.73
-311.36
-321.63
-323.47
-316.44
-301.98
-282.87
-262.19
-242.31
-224.24
-207.68
-191.58
-174.83
-156.73
-137.22
-116.66
-95.58
-74.45
-53.43
-32.32
-10.56
12.55
37.60
64.70
93.33
122.41
150.70
177.32
202.45
227.61
255.22
287.66
325.93
368.59
411.51
448.52
472.58
477.27
458.24
414.63
350.21
273.65
197.47
135.05
96.84
87.13
103.31
137.77
181.69
228.28
274.03
317.61
357.92
392.90
420.05
437.89
446.86
449.02
446.39
439.34
426.31
405.01
374.19
334.85
290.22
244.40
200.84
161.39
126.12
93.85
62.84
31.37
-2.07
-38.64
-78.81
-121.88
-165.61
-206.29
-239.42
-261.07
-269.29
-264.84
-250.93
-231.94
-211.88
-193.13
-176.26
-160.74
-145.97
-132.04
-119.71
-109.73
-102.12
-95.84
-89.43
-82.00
-73.91
-66.86
-62.98
-63.54
-68.02
-74.16
-79.00
-80.15
-76.82
-69.85
-60.92
-51.56
-42.51
-33.83
-25.44
-17.71
-11.68
-8.61
-9.36
-13.84
-20.86
-28.52
-34.89
-38.70
-39.66
-38.38
-35.90
-33.24
-31.00
-29.30
-27.98
-26.75
-25.45
-24.06
-22.65
-21.33
-20.16
-19.11
-18.17
-17.35
-16.71
-16.35
-16.36
-16.72
-17.31
-17.92
-18.35
-18.45
-18.16
-17.49
-16.46
-15.14
-13.59
-11.93
-10.28
-8.75
-7.42
-6.28
-5.25
-4.28
-3.38
-2.58
-1.98
-1.66
-1.62
-1.80
-2.13
-2.49
-2.80
-3.03
-3.13
-3.14
-3.07
-2.99
-2.93
-2.87
-2.79
-2.61
-2.30
-1.88
-1.40
-0.97
-0.65
-0.49
-0.45
-0.49
-0.53
-0.54
-0.54
-0.57
-0.68
-0.89
-1.17
-1.43
-1.56
-1.49
-1.21
-0.77
-0.29
0.11
0.35
0.44
0.42
0.39
0.38
0.42
0.49
0.54
0.56
0.53
0.43
0.29
0.16
0.07
0.09
0.27
0.59
0.99
1.39
1.69
1.83
1.79
1.61
1.35
1.05
0.79
0.62
0.58
0.64
0.74
0.74
0.50
-0.05
-0.90
-1.86
-2.67
-3.10
-3.06
-2.64
-2.08
-1.60
-1.32
-1.24
-1.23
-1.21
-1.14
-1.07
-1.08
-1.23
-1.51
-1.86
-2.22
-2.50
-2.66
-2.67
-2.50
-2.18
-1.77
-1.32
-0.87
-0.48
-0.19
-0.05
-0.05
-0.14
-0.21
-0.14
0.11
0.49
0.87
1.15
1.31
1.45
1.64
1.93
2.27
2.60
2.93
3.34
4.01
5.03
6.36
7.80
9.09
9.97
10.36
10.33
10.12
10.05
10.38
11.25
12.56
13.99
15.14
15.65
15.44
14.75
14.14
14.21
15.30
17.35
19.80
21.88
22.95
22.73
21.54
20.08
19.19
19.54
21.48
25.05
29.88
35.01
38.80
39.13
34.13
23.10
7.21
-10.63
-26.77
-38.22
-43.81
-44.41
-42.11
-39.01
-36.28
-33.94
-31.47
-28.53
-25.40
-22.82
-21.50
-21.54
-22.40
-23.17
-23.01
-21.63
-19.34
-16.88
-14.99
-14.07
-14.02
-14.36
-14.47
-13.91
-12.62
-10.91
-9.28
-8.18
-7.82
-8.10
-8.65
-9.06
-9.07
-8.73
-8.33
-8.25
-8.77
-9.87
-11.27
-12.55
-13.32
-13.47
-13.17
-12.85
-13.03
-14.11
-16.18
-18.98
-22.00
-24.65
-26.53
-27.69
-28.57
-29.99
-32.79
-37.52
-44.07
-51.56
-58.47
-63.08
-64.13
-61.20
-54.98
-47.00
-39.02
-32.47
-28.06
-25.74
-24.93
-24.70
-23.83
-21.15
-15.81
-7.75
2.11
12.17
20.94
28.10
35.03
44.51
59.52
81.81
111.00
144.79
179.96
213.60
243.60
268.27
285.54
292.56
286.14
263.96
225.84
174.48
115.24
54.85
-0.22
-45.12
-77.47
-97.32
-106.60
-108.18
-105.00
-99.37
-92.80
-86.10
-79.74
-74.18
-69.86
-66.94
-65.13
-63.67
-61.67
-58.55
-54.36
-49.69
-45.47
-42.40
-40.67
-39.89
-39.31
-38.19
-36.12
-33.13
-29.64
-26.18
-23.20
-20.85
-19.04
-17.54
-16.08
-14.50
-12.79
-11.06
-9.49
-8.19
-7.18
-6.34
-5.53
-4.63
-3.60
-2.52
-1.57
-0.90
-0.56
-0.48
-0.50
-0.48
-0.34
-0.12
0.09
0.18
0.11
-0.09
-0.34
-0.55
-0.61
-0.47
-0.17
0.20
0.54
0.72
0.70
0.48
0.16
-0.13
-0.29
-0.27
-0.10
0.18
0.50
0.82
1.14
1.41
1.61
1.70
1.66
1.53
1.32
1.10
0.90
0.75
0.66
0.59
0.57
0.58
0.68
0.83
0.99
1.08
1.02
0.78
0.44
0.12
-0.08
-0.08
0.07
0.29
0.45
0.50
0.43
0.29
0.08
-0.18
-0.52
-0.95
-1.41
-1.78
-1.95
-1.88
-1.62
-1.29
-1.05
-0.98
-1.04
-1.10
-1.04
-0.81
-0.45
-0.07
0.19
0.28
0.26
0.19
0.16
0.20
0.26
0.31
0.30
0.26
0.25
0.31
0.43
0.55
0.57
0.44
0.21
-0.02
-0.13
-0.07
0.08
0.21
0.18
-0.02
-0.31
-0.57
-0.73
-0.77
-0.78
-0.80
-0.85
-0.88
-0.83
-0.67
-0.44
-0.22
-0.06
-0.01
-0.03
-0.07
-0.04
0.11
0.40
0.78
1.17
1.45
1.57
1.51
1.29
0.99
0.66
0.35
0.09
-0.04
0.02
0.27
0.68
1.12
1.47
1.64
1.61
1.38
1.02
0.56
0.08
-0.32
-0.55
-0.54
-0.34
-0.10
0.03
-0.03
-0.23
-0.43
-0.49
-0.39
-0.21
-0.09
-0.11
-0.27
-0.48
-0.66
-0.75
-0.78
-0.76
-0.72
-0.62
-0.43
-0.12
0.27
0.66
0.99
1.18
1.20
1.06
0.79
0.44
0.09
-0.18
-0.33
-0.34
-0.28
-0.20
-0.13
-0.07
0.03
0.22
0.49
0.80
1.07
1.21
1.18
1.00
0.72
0.40
0.11
-0.11
-0.20
-0.17
-0.02
0.20
0.43
0.62
0.72
0.70
0.53
0.26
-0.07
-0.38
-0.61
-0.75
-0.84
-0.93
-1.08
-1.30
-1.52
-1.65
-1.62
-1.40
-1.05
-0.65
-0.27
0.02
0.19
0.22
0.12
-0.09
-0.40
-0.73
-0.99
-1.08
-0.94
-0.58
-0.07
0.45
0.87
1.14
1.26
1.29
1.26
1.19
1.13
1.09
1.11
1.21
1.35
1.45
1.41
1.17
0.78
0.33
-0.02
-0.19
-0.16
0.02
0.23
0.41
0.51
0.50
0.41
0.22
-0.04
-0.34
-0.64
-0.88
-1.02
-1.06
-1.07
-1.11
-1.26
-1.52
-1.80
-1.95
-1.83
-1.40
-0.72
0.05
0.73
1.17
1.36
1.33
1.16
0.92
0.66
0.41
0.18
0.00
-0.11
-0.16
-0.19
-0.20
-0.16
-0.03
0.22
0.55
0.88
1.09
1.14
1.04
0.87
0.72
0.62
0.58
0.58
0.60
0.66
0.77
0.93
1.10
1.18
1.11
0.85
0.44
-0.04
-0.48
-0.76
-0.81
-0.65
-0.39
-0.17
-0.14
-0.37
-0.81
-1.31
-1.69
-1.84
-1.72
-1.39
-0.98
-0.59
-0.30
-0.14
-0.09
-0.12
-0.18
-0.27
-0.34
-0.38
-0.38
-0.31
-0.19
-0.07
-0.00
-0.04
-0.20
-0.42
-0.59
-0.60
-0.39
-0.03
0.34
0.57
0.54
0.29
-0.02
-0.22
-0.16
0.15
0.54
0.81
0.82
0.55
0.14
-0.20
-0.35
-0.27
-0.05
0.18
0.34
0.38
0.33
0.19
-0.04
-0.39
-0.85
-1.33
-1.68
-1.78
-1.56
-1.08
-0.48
0.11
0.57
0.88
1.03
1.04
0.92
0.72
0.48
0.26
0.12
0.05
0.00
-0.10
-0.27
-0.48
-0.65
-0.70
-0.61
-0.43
-0.25
-0.12
-0.05
-0.01
0.04
0.10
0.14
0.09
-0.04
-0.21
-0.33
-0.29
-0.08
0.22
0.50
0.63
0.55
0.31
0.01
-0.26
-0.46
-0.57
-0.64
-0.68
-0.68
-0.68
-0.69
-0.74
-0.83
-0.94
-0.99
-0.87
-0.53
-0.00
0.60
1.10
1.36
1.33
1.06
0.72
0.45
0.34
0.39
0.50
0.55
0.50
0.36
0.21
0.12
0.11
0.21
0.40
0.67
0.96
1.21
1.32
1.22
0.93
0.54
0.19
-0.03
-0.09
-0.06
-0.03
-0.09
-0.25
-0.48
-0.74
-0.96
-1.12
-1.18
-1.12
-0.97
-0.77
-0.59
-0.49
-0.50
-0.62
-0.82
-1.06
-1.31
-1.52
-1.63
-1.59
-1.35
-0.93
-0.40
0.12
0.55
0.86
1.04
1.15
1.25
1.39
1.56
1.70
1.74
1.64
1.38
1.01
0.65
0.39
0.31
0.39
0.55
0.68
0.75
0.76
0.76
0.81
0.89
0.97
0.97
0.88
0.73
0.56
0.45
0.38
0.33
0.24
0.09
-0.09
-0.26
-0.34
-0.30
-0.14
0.08
0.27
0.36
0.29
0.09
-0.22
-0.57
-0.92
-1.26
-1.58
-1.92
-2.26
-2.56
-2.71
-2.58
-2.11
-1.33
-0.42
0.39
0.87
0.91
0.57
0.08
-0.34
-0.53
-0.49
-0.34
-0.22
-0.24
-0.36
-0.49
-0.52
-0.39
-0.15
0.09
0.21
0.15
-0.03
-0.21
-0.24
-0.06
0.27
0.62
0.86
0.95
0.93
0.94
1.05
1.28
1.51
1.63
1.54
1.28
0.94
0.63
0.39
0.21
0.01
-0.27
-0.61
-0.93
-1.12
-1.10
-0.90
-0.63
-0.43
-0.42
-0.57
-0.75
-0.79
-0.56
-0.12
0.40
0.78
0.92
0.80
0.54
0.27
0.08
-0.03
-0.11
-0.22
-0.36
-0.50
-0.57
-0.54
-0.40
-0.17
0.07
0.27
0.38
0.40
0.37
0.36
0.43
0.61
0.87
1.16
1.38
1.51
1.53
1.43
1.23
0.92
0.52
0.07
-0.34
-0.62
-0.70
-0.60
-0.42
-0.29
-0.35
-0.60
-0.98
-1.35
-1.57
-1.60
-1.49
-1.34
-1.27
-1.33
-1.43
-1.45
-1.27
-0.85
-0.30
0.23
0.60
0.76
0.76
0.71
0.70
0.75
0.82
0.86
0.82
0.73
0.61
0.51
0.46
0.44
0.41
0.35
0.26
0.18
0.17
0.25
0.38
0.46
0.42
0.21
-0.14
-0.49
-0.71
-0.72
-0.56
-0.32
-0.12
-0.03
-0.05
-0.14
-0.27
-0.41
-0.56
-0.71
-0.84
-0.90
-0.86
-0.74
-0.58
-0.45
-0.39
-0.42
-0.55
-0.71
-0.85
-0.91
-0.81
-0.51
-0.01
0.62
1.29
1.86
2.23
2.31
2.10
1.63
1.00
0.33
-0.22
-0.52
-0.52
-0.24
0.22
0.67
0.97
0.99
0.75
0.33
-0.09
-0.34
-0.30
0.04
0.57
1.15
1.58
1.73
1.53
1.02
0.31
-0.49
-1.23
-1.76
-1.99
-1.84
-1.37
-0.74
-0.19
0.08
-0.03
-0.43
-0.94
-1.32
-1.44
-1.30
-1.01
-0.65
-0.25
0.22
0.77
1.34
1.78
1.96
1.83
1.49
1.15
1.02
1.12
1.35
1.50
1.40
1.05
0.58
0.18
-0.03
-0.07
-0.06
-0.13
-0.34
-0.64
-0.94
-1.12
-1.16
-1.11
-1.03
-0.98
-0.99
-1.06
-1.19
-1.42
-1.76
-2.20
-2.70
-3.20
-3.67
-4.09
-4.50
-4.94
-5.45
-6.06
-6.82
-7.74
-8.82
-9.96
-11.07
-12.00
-12.68
-13.14
-13.49
-13.89
-14.49
-15.38
-16.55
-17.91
-19.40
-21.01
-22.80
-24.88
-27.37
-30.31
-33.61
-37.04
-40.34
-43.33
-46.03
-48.72
-51.86
-55.83
-60.61
-65.65
-69.97
-72.39
-72.06
-68.77
-63.12
-56.42
-50.37
-46.65
-46.40
-49.68
-54.95
-59.26
-58.97
-51.12
-34.90
-12.33
12.14
33.12
46.13
48.90
41.89
28.03
12.00
-0.60
-4.44
4.29
26.70
60.68
101.47
143.28
181.26
213.06
238.81
260.18
278.47
293.27
302.29
302.14
289.76
263.53
223.90
173.41
116.43
58.52
5.52
-37.46
-67.11
-82.59
-85.51
-79.35
-68.25
-55.87
-44.60
-35.43
-28.28
-22.69
-18.27
-14.95
-13.01
-12.93
-15.15
-19.85
-26.76
-35.11
-43.99
-52.51
-60.00
-66.05
-70.35
-72.53
-72.33
-69.79
-65.44
-60.25
-55.27
-51.22
-48.19
-45.71
-43.07
-39.81
-35.92
-31.87
-28.31
-25.67
-23.97
-22.84
-21.72
-20.19
-18.14
-15.77
-13.45
-11.49
-10.04
-9.00
-8.21
-7.46
-6.68
-5.88
-5.09
-4.36
-3.70
-3.11
-2.62
-2.28
-2.10
-2.04
-2.01
-1.90
-1.67
-1.35
-1.07
-0.91
-0.92
-1.03
-1.16
-1.20
-1.12
-0.97
-0.83
-0.80
-0.92
-1.18
-1.49
-1.74
-1.84
-1.77
-1.55
-1.30
-1.07
-0.87
-0.66
-0.35
0.08
0.60
1.05
1.31
1.29
0.99
0.52
0.06
-0.24
-0.33
-0.22
0.04
0.34
0.63
0.90
1.14
1.36
1.54
1.63
1.57
1.35
1.04
0.72
0.48
0.36
0.31
0.28
0.23
0.18
0.15
0.17
0.21
0.20
0.08
-0.16
-0.42
-0.60
-0.61
-0.44
-0.17
0.10
0.27
0.28
0.13
-0.16
-0.52
-0.92
-1.26
-1.45
-1.40
-1.05
-0.46
0.22
0.82
1.18
1.24
1.04
0.71
0.39
0.17
0.10
0.15
0.26
0.36
0.42
0.44
0.45
0.50
0.60
0.75
0.92
1.08
1.24
1.41
1.62
1.85
2.07
2.20
2.17
2.00
1.71
1.41
1.16
0.97
0.84
0.73
0.62
0.49
0.31
0.06
-0.29
-0.72
-1.18
-1.56
-1.77
-1.77
-1.61
-1.43
-1.39
-1.56
-1.91
-2.31
-2.62
-2.74
-2.66
-2.42
-2.07
-1.66
-1.23
-0.80
-0.41
-0.07
0.19
0.36
0.43
0.38
0.21
-0.08
-0.42
-0.72
-0.87
-0.80
-0.48
0.03
0.64
1.21
1.64
1.83
1.80
1.60
1.35
1.17
1.09
1.06
0.99
0.81
0.52
0.22
-0.02
-0.16
-0.30
-0.51
-0.87
-1.31
-1.69
-1.86
-1.76
-1.46
-1.11
-0.84
-0.71
-0.72
-0.81
-0.94
-1.12
-1.33
-1.57
-1.72
-1.71
-1.47
-1.05
-0.59
-0.23
-0.08
-0.14
-0.32
-0.49
-0.55
-0.48
-0.30
-0.07
0.15
0.35
0.47
0.52
0.48
0.33
0.11
-0.15
-0.37
-0.49
-0.53
-0.50
-0.50
-0.57
-0.72
-0.88
-0.97
-0.91
-0.71
-0.44
-0.19
-0.04
-0.03
-0.14
-0.33
-0.58
-0.87
-1.18
-1.50
-1.83
-2.20
-2.66
-3.24
-3.94
-4.70
-5.44
-6.05
-6.48
-6.76
-6.94
-7.11
-7.33
-7.59
-7.85
-8.03
-8.04
-7.77
-7.13
-6.03
-4.35
-2.02
0.97
4.52
8.38
12.12
15.23
17.17
17.50
15.95
12.45
7.08
0.14
-7.88
-16.26
-24.12
-30.59
-35.04
-37.32
-37.92
-37.78
-38.10
-39.86
-43.57
-49.11
-55.82
-62.87
-69.51
-75.38
-80.56
-85.47
-90.63
-96.54
-103.47
-111.51
-120.59
-130.61
-141.47
-153.14
-165.72
-179.44
-194.54
-211.23
-229.47
-248.84
-268.33
-286.28
-300.56
-308.90
-309.49
-301.55
-285.61
-263.34
-237.08
-209.16
-181.39
-154.88
-130.11
-107.11
-85.61
-64.97
-44.22
-22.16
2.27
29.50
59.06
89.68
119.86
148.40
175.17
201.33
229.12
260.97
298.39
340.89
385.31
426.05
455.94
468.19
458.47
426.71
377.54
319.17
260.97
210.73
172.88
147.91
133.18
124.17
115.86
103.76
84.76
57.82
24.25
-12.60
-48.23
-78.38
-100.19
-112.77
-116.78
-113.72
-105.23
-92.91
-78.30
-62.84
-47.60
-32.95
-18.53
-3.65
12.05
28.21
43.75
57.36
67.99
75.28
79.54
81.53
82.08
81.87
81.31
80.54
79.58
78.41
77.06
75.62
74.26
73.22
72.70
72.87
73.82
75.55
78.02
81.10
84.62
88.27
91.74
94.73
97.20
99.35
101.61
104.51
108.36
113.21
119.01
125.84
134.09
144.23
156.30
169.28
180.99
188.28
188.03
178.12
158.00
128.52
91.23
47.83
0.21
-49.06
-96.15
-136.23
-164.52
-178.05
-176.83
-164.01
-144.66
-123.92
-105.41
-90.63
-79.15
-69.70
-60.98
-51.99
-42.13
-31.07
-18.80
-5.78
7.11
18.75
28.34
35.73
41.59
47.28
54.45
64.71
79.12
97.66
118.65
138.39
151.81
153.95
142.15
117.64
85.72
53.97
29.46
16.17
14.12
20.34
31.14
44.24
59.59
78.56
102.20
129.61
157.36
180.40
193.71
194.17
181.54
158.16
127.66
93.23
56.63
18.40
-20.67
-58.23
-90.33
-113.13
-125.43
-130.24
-133.93
-143.24
-161.59
-187.06
-213.20
-232.33
-239.28
-233.59
-218.96
-200.74
-183.23
-168.23
-155.47
-144.06
-133.73
-125.08
-118.93
-115.39
-113.53
-111.53
-107.68
-101.11
-92.15
-82.19
-72.96
-65.84
-61.36
-59.16
-58.24
-57.47
-55.99
-53.42
-49.87
-45.68
-41.29
-37.01
-33.03
-29.42
-26.23
-23.47
-21.08
-18.92
-16.77
-14.42
-11.78
-8.92
-6.09
-3.55
-1.45
0.28
1.95
4.02
6.84
10.47
14.57
18.44
21.34
22.81
23.07
22.98
23.77
26.44
31.17
37.06
42.53
45.94
46.42
44.37
41.26
39.03
39.59
44.19
53.22
65.86
79.76
90.84
93.80
83.63
57.75
17.79
-30.31
-78.04
-117.45
-144.15
-158.53
-164.75
-168.19
-172.85
-180.12
-189.14
-198.31
-206.40
-212.95
-217.72
-220.22
-219.74
-215.92
-209.66
-203.31
-200.12
-203.08
-213.96
-232.63
-257.16
-284.28
-309.96
-330.12
-341.27
-341.34
-330.28
-310.24
-284.90
-258.39
-233.82
-212.51
-193.92
-176.31
-157.85
-137.48
-115.29
-92.30
-69.87
-49.05
-30.01
-11.93
6.82
28.01
52.81
81.20
111.93
142.88
172.04
198.30
221.98
244.86
269.61
299.04
335.21
378.59
427.32
476.79
520.04
549.11
557.30
541.53
503.85
451.29
393.73
340.58
297.64
265.41
239.85
215.01
186.27
152.62
116.81
83.69
57.58
40.44
31.49
28.31
28.67
31.54
37.13
45.84
57.17
69.31
79.80
86.80
90.19
91.87
95.16
103.34
117.90
137.44
157.53
171.97
174.96
163.13
136.57
98.29
52.69
3.94
-44.73
-90.73
-131.44
-163.84
-185.23
-194.31
-192.12
-181.93
-168.07
-154.31
-142.80
-133.90
-126.86
-120.74
-114.96
-109.42
-104.15
-99.06
-93.84
-88.15
-81.84
-75.06
-68.35
-62.33
-57.50
-54.02
-51.67
-50.02
-48.62
-47.20
-45.78
-44.51
-43.52
-42.78
-42.02
-40.86
-38.91
-35.93
-31.80
-26.50
-20.03
-12.40
-3.79
5.32
14.03
21.12
25.40
26.12
23.33
17.85
11.04
4.24
-1.56
-5.91
-8.81
-10.47
-11.09
-10.83
-9.82
-8.27
-6.47
-4.68
-3.12
-1.77
-0.52
0.78
2.25
3.88
5.51
6.95
8.01
8.60
8.72
8.46
7.91
7.08
5.92
4.40
2.58
0.69
-0.97
-2.11
-2.63
-2.58
-2.17
-1.61
-1.05
-0.59
-0.23
-0.02
0.02
-0.13
-0.41
-0.75
-1.04
-1.24
-1.35
-1.44
-1.52
-1.56
-1.48
-1.17
-0.61
0.20
1.18
2.25
3.30
4.28
5.08
5.59
5.75
5.57
5.16
4.74
4.56
4.77
5.39
6.31
7.35
8.31
9.09
9.62
9.84
9.66
9.00
7.82
6.22
4.47
2.94
1.96
1.67
1.97
2.53
2.99
3.03
2.49
1.30
-0.54
-3.05
-6.14
-9.56
-12.91
-15.72
-17.64
-18.59
-18.74
-18.43
-17.96
-17.45
-16.86
-16.10
-15.11
-13.97
-12.79
-11.63
-10.39
-8.90
-6.96
-4.52
-1.68
1.33
4.30
7.11
9.72
12.15
14.42
16.49
18.29
19.68
20.55
20.80
20.38
19.31
17.71
15.78
13.73
11.80
10.11
8.68
7.45
6.28
5.01
3.54
1.81
-0.10
-2.00
-3.66
-4.82
-5.37
-5.31
-4.80
-4.05
-3.26
-2.53
-1.87
-1.23
-0.55
0.21
1.08
2.06
3.11
4.19
5.20
6.08
6.79
7.35
7.78
8.13
8.38
8.47
8.31
7.80
6.90
5.65
4.13
2.44
0.68
-1.07
-2.72
-4.20
-5.42
-6.31
-6.81
-6.95
-6.81
-6.52
-6.21
-5.97
-5.85
-5.87
-6.02
-6.28
-6.63
-7.02
-7.42
-7.77
-8.09
-8.42
-8.79
-9.22
-9.65
-9.96
-10.03
-9.81
-9.36
-8.80
-8.31
-8.03
-8.04
-8.35
-8.87
-9.43
-9.85
-9.93
-9.55
-8.70
-7.48
-6.05
-4.57
-3.14
-1.80
-0.53
0.68
1.84
2.96
4.07
5.24
6.51
7.90
9.34
10.73
11.96
12.98
13.84
14.61
15.38
16.21
17.06
17.84
18.41
18.64
18.40
17.63
16.32
14.55
12.47
10.25
8.10
6.17
4.58
3.36
2.50
1.98
1.78
1.90
2.31
2.96
3.73
4.50
5.13
5.55
5.81
6.03
6.36
6.96
7.86
9.02
10.28
11.44
12.27
12.57
12.25
11.29
9.82
8.05
6.25
4.68
3.57
3.07
3.23
4.05
5.47
7.38
9.67
12.18
14.73
17.11
19.16
20.86
22.33
23.85
25.71
28.13
31.14
34.62
38.38
42.23
46.15
50.24
54.66
59.50
64.76
70.27
75.81
81.14
86.08
90.46
94.24
97.48
100.54
104.19
109.65
118.29
130.80
146.42
162.43
174.51
177.99
169.42
147.62
113.76
70.66
21.76
-29.31
-78.79
-122.59
-156.68
-178.04
-185.80
-181.91
-170.48
-156.31
-143.07
-132.34
-123.78
-116.13
-108.28
-99.89
-91.35
-83.18
-75.72
-68.88
-62.36
-55.94
-49.63
-43.79
-39.01
-35.80
-34.43
-34.79
-36.40
-38.61
-40.86
-42.74
-44.09
-44.89
-45.11
-44.65
-43.41
-41.37
-38.66
-35.57
-32.47
-29.70
-27.45
-25.73
-24.39
-23.24
-22.07
-20.77
-19.33
-17.82
-16.39
-15.16
-14.22
-13.56
-13.13
-12.81
-12.43
-11.87
-11.03
-9.93
-8.68
-7.46
-6.45
-5.71
-5.18
-4.70
-4.13
-3.44
-2.72
-2.13
-1.83
-1.84
-2.09
-2.43
-2.71
-2.85
-2.81
-2.60
-2.27
-1.88
-1.47
-1.10
-0.78
-0.55
-0.40
-0.35
-0.42
-0.59
-0.84
-1.07
-1.17
-1.08
-0.76
-0.32
0.12
0.45
0.57
0.49
0.25
-0.06
-0.37
-0.61
-0.73
-0.74
-0.64
-0.51
-0.37
-0.24
-0.10
0.07
0.27
0.45
0.52
0.42
0.20
-0.04
-0.18
-0.17
-0.03
0.11
0.13
-0.04
-0.37
-0.79
-1.19
-1.43
-1.46
-1.24
-0.78
-0.19
0.38
0.76
0.84
0.60
0.15
-0.36
-0.80
-1.08
-1.17
-1.08
-0.82
-0.42
0.10
0.67
1.19
1.54
1.69
1.61
1.37
1.03
0.66
0.32
0.07
-0.07
-0.04
0.16
0.50
0.87
1.16
1.29
1.25
1.09
0.93
0.84
0.83
0.87
0.88
0.80
0.60
0.32
0.01
-0.28
-0.53
-0.70
-0.79
-0.75
-0.56
-0.26
0.06
0.31
0.39
0.30
0.13
-0.06
-0.22
-0.34
-0.47
-0.61
-0.73
-0.76
-0.63
-0.32
0.10
0.54
0.90
1.12
1.21
1.17
1.03
0.83
0.59
0.32
0.07
-0.13
-0.27
-0.30
-0.19
0.06
0.44
0.90
1.33
1.68
1.89
1.98
1.99
2.00
2.07
2.19
2.31
2.32
2.14
1.75
1.21
0.68
0.28
0.11
0.15
0.31
0.46
0.49
0.37
0.09
-0.37
-1.11
-2.28
-4.02
-6.33
-9.08
-12.00
-14.94
-17.90
-21.12
-24.91
-29.45
-34.64
-40.07
-45.21
-49.48
-52.35
-53.32
-51.90
-47.66
-40.41
-30.36
-18.21
-5.07
7.82
19.30
28.55
35.14
39.02
40.49
40.09
38.48
36.26
33.82
31.35
28.82
26.15
23.32
20.38
17.49
14.80
12.49
10.68
9.48
8.93
8.97
9.40
9.92
10.20
10.02
9.29
8.06
6.45
4.64
2.75
0.97
-0.51
-1.47
-1.76
-1.38
-0.52
0.49
1.34
1.78
1.79
1.50
1.13
0.87
0.83
0.99
1.29
1.59
1.82
1.90
1.81
1.55
1.14
0.59
-0.07
-0.84
-1.68
-2.49
-3.14
-3.49
-3.47
-3.11
-2.56
-1.98
-1.53
-1.23
-1.05
-0.92
-0.77
-0.63
-0.53
-0.55
-0.73
-1.08
-1.53
-2.01
-2.40
-2.58
-2.46
-2.03
-1.36
-0.56
0.23
0.94
1.53
2.00
2.33
2.48
2.37
1.94
1.18
0.14
-1.06
-2.26
-3.32
-4.12
-4.68
-5.08
-5.49
-6.07
-6.86
-7.78
-8.66
-9.31
-9.70
-9.93
-10.28
-11.01
-12.29
-14.06
-16.08
-18.05
-19.69
-20.95
-22.01
-23.29
-25.26
-28.22
-32.10
-36.43
-40.46
-43.51
-45.39
-46.57
-48.16
-51.38
-57.02
-65.02
-74.34
-83.39
-90.86
-96.20
-99.94
-103.39
-107.94
-114.47
-123.18
-133.76
-145.63
-157.88
-168.93
-176.53
-178.33
-173.14
-162.03
-148.55
-137.44
-132.35
-133.82
-138.71
-141.54
-137.02
-122.35
-97.90
-66.26
-30.26
8.43
49.44
92.55
136.35
177.69
212.39
236.68
248.74
249.46
241.80
229.58
215.99
202.81
190.34
178.11
165.65
153.06
140.94
130.10
120.98
113.43
106.72
99.93
92.37
83.92
75.09
66.69
59.48
53.80
49.45
45.84
42.30
38.36
33.94
29.34
25.02
21.40
18.67
16.77
15.38
14.16
12.82
11.26
9.59
7.99
6.66
5.63
4.83
4.09
3.28
2.35
1.34
0.36
-0.47
-1.12
-1.61
-2.01
-2.39
-2.79
-3.23
-3.65
-4.02
-4.27
-4.37
-4.32
-4.17
-3.98
-3.83
-3.79
-3.85
-3.98
-4.12
-4.18
-4.12
-3.93
-3.69
-3.55
-3.65
-4.17
-5.21
-6.79
-8.82
-11.13
-13.49
-15.65
-17.47
-18.88
-19.95
-20.80
-21.57
-22.39
-23.30
-24.29
-25.31
-26.27
-27.12
-27.90
-28.78
-30.05
-32.06
-35.06
-39.06
-43.65
-48.19
-52.05
-55.05
-57.69
-61.01
-66.15
-73.72
-83.43
-94.15
-104.52
-113.59
-121.38
-128.79
-137.17
-147.67
-160.93
-177.01
-195.47
-215.30
-234.65
-250.82
-260.58
-260.99
-250.50
-229.51
-200.21
-165.75
-129.00
-91.61
-53.83
-15.11
24.76
64.79
102.62
135.25
160.41
177.66
188.70
196.54
204.02
212.34
220.59
226.48
227.82
223.84
215.62
205.33
195.01
185.58
176.66
167.33
157.06
146.29
136.23
128.29
123.17
120.49
119.00
117.19
114.09
109.68
104.87
100.90
98.76
98.65
100.04
101.96
103.60
104.69
105.70
107.52
111.10
116.94
124.84
134.06
143.59
152.59
160.87
168.88
177.75
188.96
203.99
223.77
248.12
275.28
301.99
324.12
337.91
341.27
334.54
320.24
301.91
282.61
263.91
245.72
227.07
207.06
185.57
163.28
141.09
119.49
98.17
76.21
52.54
26.57
-1.53
-30.78
-59.85
-87.59
-113.52
-137.99
-162.06
-187.07
-214.27
-244.64
-278.65
-316.14
-355.91
-395.46
-431.19
-459.18
-476.47
-482.14
-477.70
-466.45
-452.15
-437.65
-424.32
-412.35
-401.59
-392.33
-385.51
-382.27
-383.19
-387.69
-393.79
-398.56
-398.85
-392.23
-377.78
-356.31
-329.99
-301.34
-272.16
-242.92
-212.90
-181.03
-146.96
-111.57
-76.56
-43.65
-13.51
14.67
42.73
72.83
106.74
145.76
190.60
240.80
293.99
345.15
386.90
411.25
412.13
387.47
339.61
273.99
197.03
114.48
31.03
-48.92
-120.42
-177.98
-216.89
-235.06
-234.01
-218.50
-194.70
-167.89
-140.95
-114.14
-85.71
-53.56
-16.34
25.66
70.39
114.54
154.45
187.27
211.85
229.12
241.81
253.44
266.95
283.43
301.79
319.50
333.93
343.64
348.98
351.58
353.39
355.79
359.38
364.33
370.87
379.22
389.13
399.23
406.77
408.21
400.46
382.10
354.08
319.29
281.57
244.48
210.38
180.12
153.24
128.43
104.07
78.71
51.51
22.53
-7.40
-36.95
-64.92
-90.71
-114.66
-137.95
-162.31
-189.67
-221.58
-258.66
-299.75
-341.57
-378.99
-406.34
-419.38
-417.07
-402.14
-380.12
-357.09
-337.42
-322.59
-311.68
-302.83
-294.82
-287.68
-282.10
-278.16
-274.48
-268.11
-255.55
-233.95
-202.13
-160.96
-113.03
-61.98
-11.82
33.77
71.79
100.30
118.64
127.37
128.10
123.09
114.83
105.71
97.78
92.52
90.75
92.50
96.98
102.62
107.33
108.98
105.96
97.63
84.76
69.35
54.14
41.63
33.27
28.86
26.89
25.31
22.63
18.72
14.63
11.92
11.59
13.42
16.17
18.27
18.74
17.68
16.13
15.45
16.60
19.84
24.67
29.96
34.09
35.13
31.38
21.96
7.51
-9.71
-26.45
-39.61
-47.36
-49.67
-47.91
-43.97
-39.29
-34.53
-29.82
-25.28
-21.27
-18.35
-16.85
-16.57
-16.76
-16.56
-15.32
-12.98
-10.01
-7.15
-5.04
-3.90
-3.46
-3.14
-2.37
-0.90
0.95
2.32
2.11
-0.61
-6.12
-13.87
-22.53
-30.46
-36.20
-38.97
-38.89
-36.75
-33.69
-30.64
-28.08
-25.97
-23.97
-21.71
-19.08
-16.22
-13.47
-11.12
-9.29
-7.87
-6.68
-5.59
-4.61
-3.90
-3.61
-3.79
-4.29
-4.85
-5.17
-5.10
-4.61
-3.84
-2.98
-2.22
-1.69
-1.46
-1.50
-1.72
-1.91
-1.85
-1.28
-0.11
1.59
3.56
5.42
6.85
7.69
8.02
8.06
8.01
7.94
7.78
7.33
6.47
5.25
3.85
2.54
1.48
0.70
0.12
-0.37
-0.84
-1.26
-1.54
-1.61
-1.33
-0.53
0.98
3.32
6.37
9.74
12.78
14.80
15.35
14.46
12.61
10.52
8.91
8.19
8.34
9.00
9.55
9.40
8.12
5.59
1.97
-2.28
-6.49
-9.79
-11.16
-9.67
-4.65
3.85
14.83
26.52
36.77
43.86
47.05
46.94
45.08
43.36
43.32
45.58
49.79
54.89
59.59
62.53
62.14
56.61
44.18
23.82
-3.77
-35.57
-66.75
-91.99
-107.37
-111.72
-106.95
-96.97
-86.08
-77.53
-72.82
-72.09
-74.75
-80.16
-87.77
-97.00
-107.08
-117.12
-126.38
-134.51
-141.67
-148.42
-155.53
-163.61
-172.99
-183.80
-195.98
-209.49
-224.34
-240.56
-257.99
-275.99
-293.16
-307.33
-315.93
-316.65
-308.28
-291.22
-267.50
-240.22
-212.50
-186.64
-163.53
-142.77
-123.13
-103.24
-82.06
-59.16
-34.58
-8.71
17.96
44.93
71.92
98.89
126.21
154.72
185.65
220.09
258.10
297.98
336.03
367.29
387.12
392.92
385.21
367.33
344.12
320.06
297.99
278.77
261.83
246.10
230.72
215.27
199.62
183.84
168.14
152.98
139.00
126.74
116.37
107.44
99.00
90.02
79.85
68.50
56.66
45.34
35.48
27.67
22.09
18.62
17.04
17.05
18.16
19.65
20.64
20.35
18.50
15.38
11.60
7.67
3.57
-1.15
-6.97
-13.79
-20.72
-26.31
-29.22
-28.88
-25.78
-21.10
-16.15
-11.70
-7.84
-4.16
-0.14
4.49
9.56
14.60
18.92
21.88
23.16
22.92
21.90
21.26
22.15
25.27
30.53
37.16
43.99
50.04
54.89
58.79
62.58
67.38
74.26
83.78
95.53
107.85
118.01
122.92
120.27
109.44
91.91
70.80
49.84
32.23
19.86
12.86
9.59
6.92
1.01
-11.46
-32.00
-59.41
-89.89
-118.38
-140.45
-153.78
-158.63
-156.95
-151.13
-142.90
-133.18
-122.56
-111.96
-102.67
-95.93
-92.24
-90.98
-90.67
-89.70
-87.10
-82.92
-78.13
-73.99
-71.31
-70.12
-69.75
-69.42
-68.80
-68.00
-67.08
-65.34
-60.93
-51.34
-34.44
-9.52
22.24
58.17
95.08
130.21
161.65
188.32
209.73
225.73
236.78
244.22
250.36
257.94
268.91
283.13
297.63
307.15
306.02
290.90
262.78
227.33
192.78
166.40
151.30
145.12
141.57
133.60
116.53
89.38
54.09
13.60
-29.61
-73.53
-115.64
-152.05
-177.99
-189.77
-187.32
-175.25
-161.58
-154.51
-158.66
-173.18
-192.36
-208.63
-216.06
-212.65
-200.30
-183.05
-164.76
-147.68
-132.42
-118.81
-106.84
-97.03
-89.91
-85.38
-82.42
-79.40
-74.91
-68.37
-60.27
-51.86
-44.37
-38.44
-33.94
-30.14
-26.15
-21.41
-15.85
-9.93
-4.34
0.24
3.39
5.07
5.57
5.36
4.90
4.52
4.23
3.81
2.86
0.99
-2.13
-6.66
-12.62
-19.95
-28.63
-38.81
-50.77
-64.81
-81.00
-98.98
-117.89
-136.52
-153.58
-168.04
-179.41
-187.81
-193.81
-198.26
-202.03
-205.87
-210.39
-216.25
-224.28
-235.33
-249.70
-266.39
-282.75
-294.75
-298.27
-290.50
-271.13
-242.32
-207.66
-170.64
-133.49
-96.88
-60.57
-24.35
11.44
45.97
78.67
109.91
141.37
175.53
214.53
258.78
306.04
351.53
389.40
414.86
426.03
424.62
415.08
402.57
391.11
382.64
377.32
374.46
373.20
372.51
370.59
364.71
351.60
328.64
295.09
252.32
203.13
150.34
95.91
40.91
-13.52
-65.14
-110.44
-145.59
-168.05
-177.78
-177.39
-170.90
-162.13
-153.37
-145.19
-137.03
-128.39
-119.42
-110.90
-103.71
-98.13
-93.73
-89.61
-84.92
-79.33
-73.11
-66.99
-61.71
-57.65
-54.71
-52.34
-49.82
-46.54
-42.28
-37.24
-31.96
-27.01
-22.90
-19.80
-17.57
-15.87
-14.27
-12.48
-10.42
-8.28
-6.31
-4.76
-3.70
-3.01
-2.51
-2.00
-1.47
-0.95
-0.56
-0.35
-0.30
-0.37
-0.51
-0.68
-0.86
-1.02
-1.11
-1.12
-1.04
-0.91
-0.79
-0.71
-0.73
-0.88
-1.18
-1.61
-2.11
-2.54
-2.77
-2.70
-2.32
-1.76
-1.15
-0.64
-0.33
-0.20
-0.18
-0.16
-0.06
0.17
0.48
0.77
0.93
0.87
0.60
0.23
-0.10
-0.25
-0.19
0.01
0.21
0.29
0.22
0.06
-0.08
-0.09
0.06
0.31
0.55
0.69
0.66
0.52
0.30
0.04
-0.26
-0.63
-1.05
-1.47
-1.77
-1.86
-1.66
-1.19
-0.54
0.13
0.70
1.06
1.19
1.11
0.93
0.70
0.48
0.25
-0.01
-0.31
-0.64
-0.92
-1.10
-1.14
-1.07
-0.93
-0.78
-0.66
-0.58
-0.57
-0.64
-0.80
-1.00
-1.15
-1.19
-1.07
-0.81
-0.54
-0.37
-0.41
-0.65
-1.01
-1.37
-1.63
-1.76
-1.81
-1.83
-1.83
-1.78
-1.60
-1.26
-0.83
-0.48
-0.43
-0.79
-1.54
-2.52
-3.52
-4.36
-4.98
-5.42
-5.77
-6.11
-6.45
-6.78
-7.05
-7.28
-7.47
-7.67
-7.92
-8.22
-8.55
-8.82
-8.89
-8.63
-7.96
-6.94
-5.71
-4.44
-3.24
-2.10
-0.95
0.30
1.64
2.99
4.23
5.31
6.26
7.19
8.20
9.29
10.30
11.03
11.30
11.05
10.39
9.52
8.66
7.91
7.28
6.64
5.90
5.02
4.07
3.18
2.49
2.04
1.77
1.61
1.48
1.43
1.57
2.00
2.73
3.64
4.52
5.17
5.44
5.33
4.93
4.41
3.91
3.53
3.26
3.07
2.90
2.75
2.70
2.90
3.47
4.44
5.74
7.20
8.62
9.89
10.94
11.77
12.37
12.72
12.75
12.44
11.87
11.16
10.48
9.90
9.38
8.78
7.87
6.49
4.64
2.50
0.38
-1.41
-2.67
-3.44
-3.96
-4.56
-5.51
-6.85
-8.42
-9.88
-10.91
-11.36
-11.27
-10.85
-10.34
-9.90
-9.54
-9.18
-8.76
-8.28
-7.81
-7.43
-7.20
-7.12
-7.12
-7.15
-7.15
-7.03
-6.72
-6.14
-5.26
-4.13
-2.88
-1.67
-0.64
0.18
0.80
1.25
1.57
1.77
1.85
1.81
1.68
1.45
1.13
0.71
0.18
-0.44
-1.06
-1.57
-1.90
-2.04
-2.06
-2.06
-2.11
-2.24
-2.39
-2.50
-2.49
-2.33
-2.06
-1.74
-1.46
-1.26
-1.20
-1.23
-1.29
-1.33
-1.26
-1.08
-0.81
-0.49
-0.21
0.01
0.14
0.18
0.15
0.04
-0.11
-0.25
-0.30
-0.18
0.15
0.63
1.14
1.49
1.59
1.42
1.10
0.80
0.65
0.70
0.86
1.04
1.13
1.16
1.20
1.33
1.60
1.95
2.26
2.42
2.38
2.21
2.01
1.91
1.95
2.06
2.14
2.07
1.80
1.38
0.93
0.59
0.43
0.41
0.45
0.45
0.36
0.17
-0.07
-0.34
-0.65
-1.03
-1.49
-1.98
-2.43
-2.75
-2.93
-3.04
-3.22
-3.61
-4.25
-5.07
-5.90
-6.55
-6.93
-7.11
-7.28
-7.64
-8.32
-9.28
-10.29
-11.09
-11.47
-11.41
-11.09
-10.80
-10.78
-11.13
-11.72
-12.19
-12.01
-10.64
-7.65
-2.85
3.57
11.03
18.60
25.19
29.79
31.77
31.10
28.38
24.67
21.10
18.48
17.01
16.35
15.81
14.75
12.87
10.31
7.47
4.78
2.48
0.58
-1.11
-2.73
-4.33
-5.78
-6.89
-7.55
-7.77
-7.72
-7.62
-7.58
-7.60
-7.50
-7.07
-6.19
-4.92
-3.51
-2.32
-1.62
-1.50
-1.84
-2.37
-2.81
-3.01
-2.99
-2.90
-2.93
-3.18
-3.60
-4.05
-4.39
-4.53
-4.52
-4.44
-4.36
-4.30
-4.22
-4.03
-3.72
-3.30
-2.83
-2.37
-1.93
-1.52
-1.10
-0.66
-0.18
0.34
0.90
1.50
2.07
2.52
2.77
2.74
2.44
1.98
1.51
1.15
0.98
0.97
1.01
1.01
0.91
0.68
0.37
0.01
-0.35
-0.70
-1.00
-1.19
-1.25
-1.14
-0.86
-0.45
0.03
0.49
0.87
1.11
1.20
1.13
0.95
0.66
0.29
-0.13
-0.54
-0.86
-1.02
-1.04
-0.98
-0.93
-0.97
-1.08
-1.14
-1.04
-0.74
-0.28
0.23
0.66
1.01
1.34
1.74
2.23
2.76
3.21
3.47
3.50
3.37
3.18
2.98
2.74
2.36
1.78
1.01
0.17
-0.55
-1.00
-1.10
-0.88
-0.40
0.23
0.93
1.61
2.16
2.44
2.36
1.92
1.25
0.51
-0.14
-0.64
-1.03
-1.41
-1.84
-2.26
-2.51
-2.45
-2.02
-1.29
-0.44
0.34
0.91
1.27
1.52
1.77
2.07
2.42
2.77
3.06
3.22
3.26
3.18
2.96
2.61
2.11
1.53
0.94
0.48
0.24
0.24
0.46
0.81
1.20
1.55
1.82
2.01
2.14
2.22
2.24
2.23
2.17
2.00
1.66
1.09
0.29
-0.60
-1.40
-1.93
-2.07
-1.83
-1.28
-0.53
0.29
1.10
1.80
2.30
2.54
2.55
2.45
2.43
2.64
3.08
3.66
4.22
4.67
5.08
5.60
6.33
7.26
8.24
9.03
9.52
9.80
10.13
10.87
12.25
14.34
16.94
19.76
22.51
25.08
27.56
30.22
33.38
37.28
41.95
47.19
52.70
58.18
63.58
69.09
75.13
82.12
90.28
99.51
109.36
119.29
128.90
138.19
147.58
157.76
169.42
183.06
198.96
217.09
236.96
257.36
276.19
290.70
298.06
296.23
284.70
264.58
238.13
207.91
176.04
143.86
112.08
81.09
51.12
22.22
-6.00
-34.58
-65.06
-99.05
-137.36
-179.20
-221.75
-260.47
-290.38
-307.70
-311.27
-303.02
-287.11
-268.26
-250.03
-233.86
-219.31
-205.12
-190.39
-175.20
-160.48
-147.35
-136.49
-127.83
-120.67
-114.05
-107.14
-99.50
-91.15
-82.39
-73.65
-65.37
-57.87
-51.38
-46.04
-41.99
-39.26
-37.82
-37.45
-37.77
-38.30
-38.51
-38.00
-36.59
-34.41
-31.81
-29.27
-27.21
-25.81
-24.98
-24.38
-23.64
-22.52
-20.99
-19.26
-17.58
-16.16
-15.03
-14.10
-13.22
-12.31
-11.34
-10.37
-9.41
-8.48
-7.52
-6.48
-5.36
-4.22
-3.19
-2.43
-1.99
-1.84
-1.85
-1.83
-1.62
-1.18
-0.58
0.08
0.68
1.17
1.56
1.82
1.94
1.90
1.69
1.40
1.17
1.15
1.40
1.84
2.31
2.63
2.68
2.48
2.11
1.74
1.47
1.37
1.41
1.53
1.62
1.61
1.45
1.17
0.82
0.49
0.22
0.01
-0.19
-0.43
-0.69
-0.94
-1.10
-1.16
-1.14
-1.14
-1.24
-1.45
-1.74
-2.02
-2.22
-2.32
-2.32
-2.27
-2.17
-2.02
-1.84
-1.67
-1.57
-1.62
-1.79
-2.05
-2.33
-2.57
-2.79
-3.01
-3.23
-3.39
-3.40
-3.19
-2.80
-2.40
-2.18
-2.31
-2.75
-3.37
-3.95
-4.34
-4.51
-4.59
-4.73
-5.03
-5.52
-6.07
-6.56
-6.84
-6.88
-6.69
-6.35
-5.91
-5.41
-4.82
-4.06
-3.07
-1.80
-0.29
1.40
3.19
4.98
6.71
8.28
9.57
10.47
10.86
10.73
10.19
9.37
8.45
7.54
6.67
5.84
5.01
4.17
3.32
2.46
1.61
0.80
0.05
-0.60
-1.13
-1.51
-1.74
-1.81
-1.71
-1.42
-0.93
-0.28
0.45
1.17
1.79
2.27
2.60
2.83
2.94
2.93
2.77
2.47
2.06
1.65
1.36
1.28
1.43
1.75
2.12
2.41
2.55
2.55
2.47
2.35
2.19
1.95
1.56
1.03
0.38
-0.31
-1.02
-1.71
-2.35
-2.86
-3.14
-3.12
-2.76
-2.18
-1.58
-1.15
-1.05
-1.35
-2.02
-2.94
-4.00
-5.03
-5.88
-6.40
-6.47
-6.05
-5.15
-3.87
-2.33
-0.71
0.81
2.08
2.98
3.40
3.32
2.76
1.79
0.50
-0.99
-2.55
-4.07
-5.42
-6.52
-7.29
-7.66
-7.63
-7.22
-6.47
-5.48
-4.35
-3.12
-1.81
-0.38
1.26
3.20
5.47
8.04
10.71
13.23
15.24
16.47
16.74
16.08
14.61
12.59
10.28
7.92
5.69
3.74
2.16
1.01
0.29
-0.04
-0.11
-0.03
0.04
-0.02
-0.27
-0.73
-1.34
-2.00
-2.59
-2.98
-3.11
-2.97
-2.62
-2.11
-1.52
-0.90
-0.30
0.25
0.66
0.87
0.87
0.67
0.36
0.05
-0.19
-0.36
-0.50
-0.70
-1.01
-1.44
-1.95
-2.45
-2.83
-2.98
-2.84
-2.40
-1.75
-1.01
-0.32
0.25
0.70
1.06
1.38
1.63
1.76
1.76
1.64
1.48
1.39
1.40
1.47
1.52
1.47
1.33
1.15
1.03
1.00
1.01
0.98
0.87
0.73
0.67
0.80
1.16
1.65
2.11
2.37
2.37
2.14
1.79
1.46
1.21
1.06
0.97
0.90
0.83
0.74
0.61
0.43
0.18
-0.12
-0.44
-0.71
-0.92
-1.05
-1.14
-1.20
-1.24
-1.21
-1.07
-0.78
-0.31
0.29
0.92
1.45
1.77
1.82
1.60
1.23
0.84
0.54
0.36
0.22
0.03
-0.29
-0.72
-1.14
-1.43
-1.51
-1.38
-1.11
-0.76
-0.38
0.00
0.38
0.66
0.74
0.50
-0.07
-0.85
-1.61
-2.09
-2.13
-1.75
-1.11
-0.42
0.15
0.55
0.84
1.06
1.22
1.26
1.12
0.78
0.30
-0.17
-0.51
-0.67
-0.70
-0.65
-0.59
-0.55
-0.54
-0.56
-0.58
-0.60
-0.55
-0.37
-0.03
0.48
1.07
1.64
2.08
2.34
2.40
2.23
1.82
1.18
0.36
-0.48
-1.13
-1.43
-1.33
-0.90
-0.38
0.01
0.11
-0.07
-0.41
-0.75
-0.97
-0.99
-0.83
-0.51
-0.06
0.45
0.93
1.27
1.40
1.28
1.00
0.69
0.46
0.35
0.33
0.30
0.20
0.03
-0.15
-0.26
-0.28
-0.27
-0.29
-0.38
-0.51
-0.62
-0.63
-0.52
-0.37
-0.23
-0.19
-0.23
-0.31
-0.36
-0.33
-0.19
0.02
0.28
0.52
0.69
0.76
0.68
0.47
0.18
-0.13
-0.41
-0.63
-0.80
-0.93
-0.99
-0.92
-0.69
-0.36
-0.03
0.17
0.18
0.08
-0.02
0.01
0.18
0.38
0.46
0.32
0.01
-0.36
-0.65
-0.78
-0.78
-0.74
-0.72
-0.75
-0.80
-0.83
-0.85
-0.84
-0.80
-0.68
-0.45
-0.13
0.24
0.56
0.76
0.82
0.76
0.63
0.44
0.19
-0.10
-0.41
-0.64
-0.72
-0.58
-0.24
0.20
0.60
0.79
0.71
0.34
-0.22
-0.78
-1.18
-1.30
-1.14
-0.79
-0.40
-0.10
0.03
-0.02
-0.20
-0.43
-0.68
-0.87
-0.97
-0.94
-0.78
-0.51
-0.21
0.08
0.31
0.48
0.61
0.73
0.85
0.94
0.96
0.89
0.73
0.53
0.38
0.34
0.41
0.54
0.65
0.67
0.58
0.44
0.33
0.34
0.45
0.58
0.60
0.43
0.13
-0.13
-0.16
0.15
0.72
1.32
1.70
1.71
1.39
0.91
0.47
0.17
-0.02
-0.19
-0.40
-0.62
-0.75
-0.70
-0.49
-0.25
-0.15
-0.29
-0.63
-1.01
-1.24
-1.18
-0.86
-0.44
-0.11
0.02
-0.03
-0.16
-0.26
-0.29
-0.29
-0.37
-0.57
-0.84
-1.04
-1.01
-0.66
-0.06
0.61
1.11
1.27
1.05
0.58
0.10
-0.18
-0.18
0.07
0.43
0.77
1.05
1.30
1.56
1.86
2.10
2.14
1.91
1.42
0.80
0.24
-0.13
-0.27
-0.23
-0.12
-0.05
-0.08
-0.23
-0.47
-0.73
-0.95
-1.05
-1.00
-0.78
-0.45
-0.06
0.28
0.53
0.65
0.70
0.72
0.76
0.79
0.75
0.53
0.12
-0.41
-0.87
-1.08
-0.93
-0.51
-0.06
0.16
0.03
-0.42
-0.94
-1.25
-1.19
-0.76
-0.16
0.39
0.69
0.70
0.51
0.24
-0.01
-0.20
-0.39
-0.62
-0.92
-1.21
-1.41
-1.43
-1.26
-0.97
-0.64
-0.36
-0.16
-0.05
0.03
0.09
0.16
0.24
0.31
0.40
0.50
0.59
0.62
0.53
0.31
-0.01
-0.33
-0.53
-0.54
-0.41
-0.26
-0.19
-0.28
-0.46
-0.58
-0.53
-0.29
0.03
0.25
0.28
0.15
0.01
0.03
0.27
0.64
0.93
0.97
0.68
0.18
-0.31
-0.57
-0.50
-0.16
0.28
0.64
0.78
0.71
0.54
0.37
0.30
0.35
0.49
0.65
0.81
0.94
1.09
1.26
1.44
1.58
1.58
1.37
0.92
0.33
-0.21
-0.52
-0.53
-0.29
0.00
0.15
0.04
-0.25
-0.54
-0.66
-0.52
-0.24
0.01
0.08
-0.07
-0.36
-0.66
-0.88
-1.01
-1.09
-1.15
-1.19
-1.15
-1.01
-0.80
-0.58
-0.41
-0.30
-0.20
-0.04
0.23
0.61
1.04
1.39
1.58
1.51
1.19
0.69
0.14
-0.31
-0.56
-0.57
-0.36
-0.00
0.41
0.82
1.18
1.43
1.53
1.45
1.21
0.90
0.61
0.46
0.46
0.55
0.65
0.66
0.57
0.41
0.24
0.07
-0.09
-0.30
-0.53
-0.78
-0.97
-1.10
-1.17
-1.23
-1.34
-1.50
-1.70
-1.90
-2.04
-2.12
-2.13
-2.12
-2.08
-2.01
-1.90
-1.72
-1.49
-1.25
-1.05
-0.94
-0.96
-1.10
-1.36
-1.71
-2.11
-2.54
-2.94
-3.27
-3.51
-3.71
-3.91
-4.20
-4.58
-5.03
-5.49
-5.93
-6.35
-6.83
-7.39
-8.01
-8.62
-9.17
-9.71
-10.35
-11.23
-12.39
-13.76
-15.14
-16.35
-17.33
-18.15
-18.98
-19.91
-20.86
-21.55
-21.58
-20.60
-18.46
-15.19
-10.95
-5.91
-0.21
6.07
12.78
19.60
26.09
31.74
36.12
39.05
40.60
40.97
40.35
38.80
36.32
32.93
28.82
24.38
20.06
16.19
12.87
9.94
7.19
4.52
2.03
-0.03
-1.44
-2.14
-2.33
-2.32
-2.43
-2.82
-3.53
-4.51
-5.71
-7.04
-8.37
-9.50
-10.22
-10.46
-10.35
-10.23
-10.47
-11.26
-12.47
-13.66
-14.28
-13.95
-12.65
-10.84
-9.26
-8.61
-9.21
-10.82
-12.70
-13.93
-13.88
-12.50
-10.35
-8.33
-7.21
-7.35
-8.62
-10.63
-13.08
-15.85
-19.08
-22.93
-27.39
-32.30
-37.42
-42.63
-47.94
-53.47
-59.31
-65.48
-71.95
-78.81
-86.35
-95.04
-105.24
-116.95
-129.67
-142.50
-154.52
-165.25
-174.90
-184.33
-194.73
-207.20
-222.35
-239.89
-258.43
-275.47
-287.89
-292.78
-288.41
-274.93
-254.33
-229.62
-203.61
-177.84
-152.34
-126.06
-97.94
-67.65
-35.84
-3.76
27.48
57.45
86.60
116.12
147.74
183.20
223.45
267.89
313.77
356.37
390.15
410.45
415.21
405.60
385.56
360.24
334.41
311.40
292.70
277.98
265.22
251.13
231.98
205.04
169.97
129.58
89.10
54.16
28.60
13.10
5.62
2.88
2.07
1.76
1.63
1.56
0.99
-0.97
-4.88
-10.37
-16.11
-20.42
-22.09
-20.98
-18.03
-14.80
-12.72
-12.52
-13.98
-16.17
-17.90
-18.28
-17.05
-14.66
-11.97
-9.89
-8.96
-9.12
-9.86
-10.45
-10.35
-9.39
-7.84
-6.20
-4.95
-4.32
-4.22
-4.37
-4.46
-4.30
-3.86
-3.23
-2.55
-1.89
-1.31
-0.86
-0.55
-0.40
-0.39
-0.44
-0.49
-0.51
-0.51
-0.57
-0.73
-1.02
-1.38
-1.70
-1.87
-1.84
-1.60
-1.24
-0.89
-0.68
-0.70
-0.92
-1.25
-1.52
-1.61
-1.51
-1.30
-1.13
-1.13
-1.36
-1.74
-2.17
-2.54
-2.76
-2.81
-2.66
-2.29
-1.62
-0.63
0.62
1.96
3.16
4.00
4.39
4.36
4.06
3.66
3.26
2.86
2.41
1.86
1.25
0.68
0.26
-0.00
-0.20
-0.46
-0.90
-1.53
-2.28
-3.01
-3.64
-4.17
-4.70
-5.35
-6.18
-7.14
-8.08
-8.75
-8.95
-8.56
-7.57
-6.11
-4.37
-2.54
-0.80
0.75
2.03
3.04
3.80
4.38
4.88
5.39
5.94
6.56
7.22
7.83
8.33
8.62
8.65
8.38
7.81
7.03
6.12
5.20
4.34
3.61
3.02
2.58
2.25
2.00
1.78
1.54
1.24
0.88
0.46
0.04
-0.33
-0.59
-0.72
-0.74
-0.72
-0.80
-1.08
-1.62
-2.37
-3.19
-3.92
-4.42
-4.63
-4.56
-4.21
-3.63
-2.82
-1.81
-0.65
0.56
1.72
2.69
3.39
3.81
4.01
4.10
4.19
4.37
4.62
4.84
4.88
4.61
4.03
3.21
2.30
1.45
0.71
0.10
-0.42
-0.86
-1.18
-1.36
-1.37
-1.21
-0.94
-0.68
-0.54
-0.63
-1.00
-1.60
-2.32
-2.98
-3.42
-3.56
-3.43
-3.15
-2.91
-2.85
-3.04
-3.46
-4.03
-4.58
-4.94
-4.95
-4.51
-3.61
-2.37
-0.97
0.33
1.35
1.98
2.23
2.21
2.09
2.00
2.03
2.20
2.44
2.70
2.89
2.99
2.98
2.87
2.64
2.33
1.97
1.65
1.43
1.39
1.52
1.75
1.96
2.04
1.86
1.43
0.81
0.13
-0.48
-0.90
-1.11
-1.16
-1.13
-1.05
-0.92
-0.72
-0.45
-0.22
-0.14
-0.32
-0.73
-1.23
-1.58
-1.61
-1.32
-0.84
-0.40
-0.17
-0.21
-0.45
-0.74
-0.98
-1.11
-1.10
-0.98
-0.76
-0.48
-0.20
-0.01
0.01
-0.17
-0.49
-0.81
-1.02
-1.07
-1.01
-0.92
-0.87
-0.86
-0.83
-0.71
-0.48
-0.21
0.01
0.12
0.11
0.02
-0.07
-0.16
-0.25
-0.37
-0.54
-0.72
-0.84
-0.84
-0.71
-0.46
-0.16
0.15
0.44
0.72
0.99
1.27
1.52
1.69
1.74
1.65
1.47
1.29
1.23
1.32
1.56
1.84
2.05
2.11
2.00
1.77
1.49
1.23
1.01
0.79
0.56
0.33
0.12
-0.04
-0.15
-0.23
-0.32
-0.40
-0.41
-0.28
0.06
0.57
1.12
1.57
1.78
1.69
1.35
0.84
0.27
-0.27
-0.76
-1.16
-1.44
-1.56
-1.47
-1.15
-0.60
0.08
0.77
1.33
1.66
1.75
1.63
1.40
1.14
0.91
0.76
0.73
0.81
0.99
1.19
1.30
1.22
0.92
0.47
0.01
-0.31
-0.39
-0.25
0.00
0.25
0.41
0.50
0.55
0.63
0.74
0.83
0.83
0.69
0.41
0.04
-0.36
-0.75
-1.13
-1.51
-1.89
-2.27
-2.61
-2.84
-2.90
-2.76
-2.39
-1.81
-1.07
-0.30
0.36
0.78
0.88
0.70
0.36
-0.00
-0.28
-0.44
-0.49
-0.49
-0.47
-0.47
-0.49
-0.58
-0.74
-1.01
-1.36
-1.71
-1.98
-2.11
-2.09
-1.99
-1.88
-1.81
-1.77
-1.67
-1.40
-0.92
-0.26
0.42
0.97
1.27
1.28
1.10
0.85
0.62
0.46
0.33
0.19
0.05
-0.04
0.02
0.25
0.58
0.89
1.01
0.88
0.54
0.11
-0.28
-0.51
-0.58
-0.52
-0.43
-0.38
-0.38
-0.44
-0.50
-0.53
-0.53
-0.51
-0.50
-0.52
-0.58
-0.62
-0.58
-0.42
-0.15
0.15
0.36
0.39
0.23
-0.03
-0.25
-0.29
-0.11
0.25
0.63
0.89
0.91
0.73
0.45
0.23
0.19
0.33
0.59
0.85
1.02
1.08
1.04
0.93
0.81
0.70
0.64
0.65
0.75
0.91
1.08
1.15
1.04
0.72
0.29
-0.13
-0.41
-0.47
-0.35
-0.14
0.04
0.10
0.05
-0.04
-0.10
-0.05
0.10
0.33
0.56
0.72
0.77
0.70
0.54
0.35
0.20
0.14
0.17
0.27
0.40
0.55
0.69
0.84
0.97
1.03
0.96
0.73
0.36
-0.10
-0.52
-0.83
-0.99
-1.03
-0.97
-0.84
-0.65
-0.41
-0.14
0.09
0.18
0.09
-0.15
-0.46
-0.75
-0.94
-1.08
-1.26
-1.55
-1.97
-2.40
-2.71
-2.80
-2.68
-2.44
-2.24
-2.18
-2.27
-2.41
-2.52
-2.53
-2.43
-2.26
-2.06
-1.80
-1.45
-0.99
-0.48
0.02
0.44
0.79
1.09
1.39
1.69
1.92
2.02
1.93
1.66
1.30
0.92
0.59
0.34
0.17
0.10
0.16
0.37
0.70
1.06
1.32
1.37
1.20
0.86
0.50
0.24
0.18
0.28
0.45
0.55
0.51
0.32
0.05
-0.21
-0.40
-0.50
-0.53
-0.50
-0.44
-0.35
-0.27
-0.25
-0.35
-0.58
-0.92
-1.27
-1.55
-1.71
-1.77
-1.76
-1.77
-1.81
-1.89
-1.98
-2.04
-2.03
-1.91
-1.68
-1.36
-0.98
-0.58
-0.22
0.05
0.18
0.15
-0.03
-0.31
-0.65
-0.97
-1.17
-1.21
-1.03
-0.67
-0.20
0.30
0.70
0.94
1.03
1.02
1.02
1.11
1.31
1.55
1.74
1.82
1.81
1.79
1.83
1.94
2.08
2.18
2.17
2.08
1.97
1.91
1.92
1.95
1.91
1.77
1.54
1.29
1.09
0.99
0.96
0.98
1.01
1.07
1.16
1.26
1.29
1.17
0.84
0.35
-0.19
-0.69
-1.07
-1.36
-1.62
-1.89
-2.14
-2.27
-2.21
-1.94
-1.53
-1.13
-0.87
-0.80
-0.88
-1.01
-1.06
-0.94
-0.64
-0.22
0.21
0.53
0.69
0.71
0.67
0.69
0.78
0.91
0.96
0.83
0.47
-0.03
-0.52
-0.87
-1.01
-0.96
-0.81
-0.64
-0.50
-0.42
-0.38
-0.39
-0.43
-0.50
-0.58
-0.59
-0.50
-0.31
-0.04
0.20
0.36
0.40
0.36
0.31
0.27
0.25
0.19
0.06
-0.12
-0.25
-0.26
-0.10
0.17
0.40
0.47
0.33
0.06
-0.18
-0.27
-0.18
0.03
0.25
0.42
0.54
0.63
0.70
0.68
0.49
0.10
-0.44
-0.98
-1.34
-1.42
-1.25
-0.95
-0.71
-0.64
-0.75
-0.99
-1.24
-1.41
-1.44
-1.32
-1.11
-0.86
-0.59
-0.35
-0.16
-0.02
0.04
-0.01
-0.16
-0.39
-0.64
-0.84
-0.90
-0.81
-0.60
-0.32
-0.07
0.09
0.17
0.19
0.23
0.34
0.54
0.80
1.07
1.31
1.47
1.60
1.70
1.80
1.84
1.76
1.50
1.08
0.59
0.16
-0.09
-0.11
0.09
0.42
0.79
1.16
1.48
1.75
1.92
1.95
1.79
1.44
0.95
0.41
-0.05
-0.33
-0.37
-0.16
0.22
0.63
0.94
1.06
0.97
0.74
0.46
0.25
0.12
0.07
0.07
0.07
0.04
-0.02
-0.15
-0.33
-0.53
-0.72
-0.88
-1.00
-1.13
-1.33
-1.64
-2.05
-2.50
-2.89
-3.13
-3.16
-2.97
-2.61
-2.14
-1.65
-1.22
-0.92
-0.76
-0.72
-0.76
-0.82
-0.84
-0.77
-0.59
-0.32
0.02
0.35
0.65
0.87
1.02
1.06
0.96
0.73
0.39
0.07
-0.14
-0.16
-0.01
0.21
0.40
0.51
0.58
0.64
0.68
0.62
0.34
-0.18
-0.82
-1.33
-1.52
-1.28
-0.74
-0.07
0.53
0.99
1.32
1.57
1.76
1.87
1.85
1.72
1.50
1.27
1.09
0.97
0.91
0.91
0.99
1.11
1.19
1.13
0.84
0.31
-0.33
-0.89
-1.20
-1.19
-0.93
-0.59
-0.36
-0.34
-0.53
-0.81
-1.07
-1.18
-1.13
-0.93
-0.65
-0.31
0.05
0.42
0.75
0.98
1.06
0.96
0.70
0.37
0.12
0.02
0.13
0.39
0.68
0.88
0.91
0.74
0.48
0.24
0.13
0.16
0.29
0.40
0.40
0.23
-0.07
-0.42
-0.75
-1.03
-1.23
-1.37
-1.41
-1.31
-1.06
-0.69
-0.32
-0.11
-0.11
-0.30
-0.52
-0.61
-0.46
-0.13
0.27
0.55
0.67
0.65
0.58
0.51
0.43
0.28
0.00
-0.38
-0.76
-1.03
-1.11
-1.02
-0.87
-0.73
-0.67
-0.71
-0.80
-0.91
-0.97
-0.94
-0.76
-0.40
0.08
0.60
1.02
1.22
1.17
0.94
0.64
0.41
0.31
0.34
0.41
0.43
0.36
0.20
0.03
-0.07
-0.07
0.03
0.20
0.37
0.52
0.62
0.65
0.63
0.53
0.38
0.22
0.13
0.13
0.21
0.30
0.31
0.16
-0.13
-0.50
-0.82
-1.00
-1.00
-0.83
-0.53
-0.19
0.15
0.45
0.67
0.74
0.65
0.43
0.15
-0.05
-0.10
0.01
0.22
0.42
0.51
0.47
0.36
0.23
0.11
0.01
-0.14
-0.36
-0.58
-0.73
-0.74
-0.59
-0.36
-0.18
-0.15
-0.28
-0.51
-0.75
-0.88
-0.86
-0.69
-0.42
-0.12
0.11
0.19
0.12
-0.08
-0.29
-0.38
-0.27
0.06
0.49
0.89
1.13
1.17
1.06
0.90
0.80
0.78
0.80
0.77
0.61
0.32
-0.02
-0.31
-0.47
-0.46
-0.35
-0.24
-0.22
-0.28
-0.40
-0.49
-0.50
-0.46
-0.41
-0.40
-0.46
-0.56
-0.66
-0.75
-0.80
-0.82
-0.77
-0.63
-0.39
-0.10
0.16
0.28
0.27
0.17
0.14
0.29
0.62
1.01
1.29
1.29
1.00
0.53
0.06
-0.26
-0.39
-0.38
-0.34
-0.33
-0.38
-0.40
-0.32
-0.10
0.24
0.60
0.86
0.94
0.82
0.55
0.23
-0.05
-0.24
-0.33
-0.34
-0.30
-0.24
-0.16
-0.08
-0.04
-0.10
-0.27
-0.48
-0.64
-0.63
-0.40
0.01
0.47
0.80
0.91
0.77
0.45
0.06
-0.27
-0.49
-0.59
-0.58
-0.51
-0.40
-0.26
-0.11
0.03
0.14
0.18
0.15
0.07
-0.04
-0.12
-0.13
-0.07
0.03
0.11
0.11
0.02
-0.12
-0.22
-0.21
-0.05
0.24
0.57
0.82
0.91
0.81
0.55
0.25
-0.00
-0.13
-0.12
-0.02
0.10
0.18
0.16
0.07
-0.07
-0.21
-0.32
-0.42
-0.49
-0.55
-0.58
-0.58
-0.56
-0.53
-0.53
-0.54
-0.53
-0.47
-0.36
-0.24
-0.19
-0.23
-0.33
-0.39
-0.33
-0.13
0.13
0.31
0.31
0.18
0.04
0.02
0.20
0.51
0.81
0.98
0.93
0.72
0.42
0.13
-0.09
-0.26
-0.41
-0.55
-0.67
-0.70
-0.62
-0.40
-0.08
0.25
0.48
0.52
0.36
0.06
-0.25
-0.45
-0.44
-0.25
0.04
0.34
0.60
0.82
1.03
1.23
1.37
1.35
1.08
0.61
0.12
-0.20
-0.20
0.09
0.50
0.80
0.85
0.67
0.39
0.19
0.15
0.20
0.23
0.14
-0.07
-0.30
-0.44
-0.47
-0.42
-0.39
-0.46
-0.63
-0.86
-1.07
-1.21
-1.27
-1.27
-1.24
-1.15
-0.97
-0.66
-0.22
0.30
0.82
1.23
1.46
1.46
1.24
0.89
0.52
0.23
0.08
0.05
0.08
0.12
0.14
0.13
0.11
0.08
0.04
-0.06
-0.23
-0.48
-0.73
-0.91
-0.95
-0.85
-0.66
-0.47
-0.35
-0.30
-0.24
-0.09
0.20
0.58
0.95
1.18
1.20
1.09
1.00
1.07
1.38
1.86
2.40
2.87
3.26
3.60
3.96
4.34
4.72
5.05
5.30
5.52
5.77
6.17
6.77
7.54
8.42
9.36
10.33
11.39
12.61
14.09
15.87
17.93
20.14
22.32
24.33
26.19
28.12
30.45
33.54
37.53
42.32
47.53
52.70
57.52
61.97
66.41
71.40
77.44
84.82
93.41
102.82
112.45
121.77
130.48
138.58
146.48
155.06
165.66
179.78
198.31
220.67
244.15
264.24
275.82
275.06
260.86
235.28
202.48
167.03
132.14
98.98
67.02
35.02
1.89
-33.13
-70.54
-110.62
-152.89
-195.41
-234.66
-266.12
-285.90
-292.17
-286.06
-271.13
-251.94
-232.41
-214.84
-199.87
-187.08
-175.86
-165.76
-156.50
-147.74
-138.97
-129.69
-119.66
-109.08
-98.54
-88.79
-80.36
-73.40
-67.62
-62.44
-57.27
-51.75
-45.84
-39.84
-34.21
-29.39
-25.54
-22.52
-19.94
-17.37
-14.56
-11.53
-8.53
-5.93
-3.99
-2.75
-2.06
-1.68
-1.38
-1.06
-0.71
-0.35
-0.01
0.32
0.61
0.81
0.88
0.83
0.71
0.58
0.51
0.48
0.42
0.29
0.09
-0.11
-0.18
-0.06
0.24
0.60
0.90
1.07
1.10
1.06
1.01
0.93
0.79
0.55
0.20
-0.17
-0.42
-0.47
-0.29
0.02
0.32
0.44
0.32
-0.03
-0.45
-0.78
-0.89
-0.79
-0.55
-0.34
-0.27
-0.34
-0.47
-0.57
-0.57
-0.52
-0.51
-0.64
-0.93
-1.34
-1.78
-2.20
-2.56
-2.89
-3.21
-3.49
-3.66
-3.62
-3.24
-2.46
-1.31
0.12
1.65
3.11
4.31
5.16
5.59
5.61
5.22
4.46
3.42
2.26
1.19
0.41
0.03
0.04
0.32
0.64
0.86
0.91
0.87
0.87
1.03
1.39
1.90
2.44
2.91
3.22
3.38
3.44
3.50
3.66
4.00
4.51
5.08
5.58
5.84
5.79
5.56
5.38
5.57
6.33
7.68
9.38
11.12
12.57
13.61
14.38
15.25
16.65
18.88
21.93
25.42
28.75
31.37
33.09
34.20
35.46
37.65
41.24
46.08
51.44
56.44
60.42
63.27
65.44
67.64
70.48
74.32
79.29
85.33
91.85
97.30
99.05
93.89
79.36
55.11
23.57
-10.61
-42.28
-67.73
-85.81
-97.77
-105.92
-112.28
-117.75
-122.34
-125.94
-128.88
-131.94
-135.76
-140.25
-144.47
-146.97
-146.38
-141.94
-133.63
-122.06
-108.04
-92.36
-75.60
-58.18
-40.38
-22.41
-4.56
12.78
29.03
43.38
54.88
62.67
66.30
65.93
62.43
57.08
51.17
45.68
41.02
37.11
33.61
30.21
26.86
23.70
21.00
18.95
17.59
16.73
16.05
15.27
14.16
12.71
11.06
9.44
8.06
7.02
6.26
5.62
4.95
4.25
3.61
3.25
3.29
3.71
4.28
4.69
4.65
4.06
3.03
1.87
0.90
0.30
0.01
-0.28
-0.90
-2.08
-3.73
-5.51
-7.01
-7.89
-8.08
-7.72
-7.08
-6.37
-5.69
-5.05
-4.44
-3.85
-3.30
-2.83
-2.42
-2.02
-1.53
-0.93
-0.21
0.58
1.31
1.88
2.16
2.15
1.90
1.50
1.10
0.78
0.61
0.59
0.73
0.99
1.28
1.51
1.55
1.32
0.81
0.13
-0.61
-1.30
-1.92
-2.47
-2.90
-3.15
-3.10
-2.72
-2.07
-1.37
-0.84
-0.63
-0.74
-1.02
-1.25
-1.29
-1.06
-0.63
-0.10
0.42
0.83
1.07
1.11
0.94
0.56
0.05
-0.47
-0.84
-0.96
-0.80
-0.45
-0.10
0.12
0.10
-0.09
-0.36
-0.56
-0.58
-0.40
-0.08
0.29
0.58
0.73
0.67
0.41
0.00
-0.48
-0.97
-1.40
-1.72
-1.91
-1.93
-1.81
-1.62
-1.50
-1.61
-2.09
-2.96
-4.14
-5.43
-6.64
-7.65
-8.43
-9.08
-9.70
-10.36
-11.04
-11.66
-12.14
-12.49
-12.84
-13.42
-14.47
-16.12
-18.37
-21.05
-23.94
-26.92
-29.98
-33.27
-36.98
-41.27
-46.07
-51.13
-56.08
-60.59
-64.59
-68.41
-72.68
-78.16
-85.34
-94.19
-104.11
-114.16
-123.39
-131.32
-138.14
-144.62
-151.84
-160.83
-172.16
-185.63
-200.01
-213.04
-221.75
-223.20
-215.38
-197.91
-172.24
-140.99
-107.02
-72.35
-37.61
-2.06
35.79
77.17
122.06
168.55
212.91
250.44
276.85
289.70
289.22
278.12
260.44
240.09
219.78
200.80
183.51
168.04
154.73
143.92
135.52
128.71
122.12
114.35
104.66
93.21
81.01
69.39
59.38
51.27
44.63
38.51
32.08
24.96
17.45
10.32
4.44
0.37
-1.85
-2.68
-2.80
-2.84
-3.20
-3.95
-4.94
-5.97
-6.86
-7.53
-7.96
-8.20
-8.28
-8.28
-8.24
-8.20
-8.16
-8.11
-7.96
-7.68
-7.23
-6.66
-6.06
-5.52
-5.04
-4.60
-4.08
-3.40
-2.55
-1.57
-0.56
0.40
1.29
2.10
2.81
3.35
3.59
3.41
2.83
1.97
1.07
0.36
-0.04
-0.14
-0.06
0.08
0.24
0.40
0.59
0.80
0.99
1.09
1.09
1.04
0.98
0.98
1.05
1.19
1.37
1.59
1.84
2.11
2.37
2.61
2.81
2.97
3.09
3.11
3.01
2.73
2.27
1.66
0.97
0.31
-0.21
-0.49
-0.47
-0.21
0.18
0.52
0.69
0.64
0.41
0.10
-0.20
-0.44
-0.63
-0.78
-0.89
-0.91
-0.82
-0.66
-0.47
-0.32
-0.21
-0.10
0.06
0.27
0.49
0.66
0.74
0.73
0.71
0.73
0.80
0.86
0.86
0.76
0.56
0.27
-0.10
-0.59
-1.22
-1.95
-2.71
-3.40
-3.92
-4.24
-4.32
-4.15
-3.70
-2.93
-1.89
-0.72
0.34
1.08
1.36
1.21
0.83
0.45
0.25
0.23
0.26
0.15
-0.23
-0.83
-1.50
-2.04
-2.33
-2.39
-2.37
-2.41
-2.57
-2.85
-3.14
-3.33
-3.36
-3.17
-2.76
-2.15
-1.36
-0.51
0.26
0.82
1.10
1.10
0.92
0.70
0.55
0.51
0.54
0.57
0.50
0.32
0.06
-0.24
-0.49
-0.65
-0.69
-0.62
-0.45
-0.20
0.08
0.29
0.33
0.15
-0.21
-0.65
-0.98
-1.08
-0.90
-0.53
-0.11
0.26
0.50
0.66
0.79
0.91
1.02
1.07
1.01
0.84
0.60
0.32
0.04
-0.24
-0.53
-0.79
-0.99
-1.06
-1.00
-0.83
-0.63
-0.49
-0.43
-0.44
-0.47
-0.46
-0.39
-0.28
-0.16
-0.04
0.10
0.25
0.39
0.46
0.40
0.17
-0.18
-0.57
-0.89
-1.04
-0.96
-0.65
-0.14
0.50
1.14
1.66
1.90
1.79
1.33
0.67
0.02
-0.45
-0.63
-0.58
-0.41
-0.28
-0.28
-0.39
-0.50
-0.49
-0.30
0.05
0.45
0.77
0.91
0.86
0.70
0.54
0.50
0.60
0.79
0.95
0.99
0.86
0.62
0.36
0.18
0.11
0.11
0.14
0.12
0.05
-0.03
-0.08
-0.11
-0.15
-0.26
-0.41
-0.55
-0.61
-0.56
-0.46
-0.43
-0.54
-0.79
-1.11
-1.34
-1.41
-1.31
-1.14
-1.03
-1.05
-1.20
-1.37
-1.46
-1.35
-1.04
-0.58
-0.11
0.24
0.38
0.31
0.12
-0.06
-0.10
0.04
0.29
0.56
0.73
0.79
0.74
0.64
0.49
0.29
0.06
-0.19
-0.37
-0.43
-0.34
-0.17
0.01
0.11
0.11
0.06
0.05
0.12
0.25
0.40
0.48
0.47
0.40
0.35
0.37
0.47
0.57
0.59
0.45
0.14
-0.29
-0.71
-1.00
-1.11
-1.06
-0.89
-0.69
-0.50
-0.32
-0.13
0.10
0.36
0.63
0.89
1.13
1.33
1.49
1.53
1.39
1.03
0.49
-0.09
-0.58
-0.86
-0.93
-0.87
-0.74
-0.61
-0.47
-0.34
-0.22
-0.15
-0.16
-0.18
-0.16
-0.05
0.14
0.30
0.30
0.12
-0.16
-0.38
-0.38
-0.16
0.15
0.34
0.30
0.05
-0.27
-0.47
-0.47
-0.34
-0.20
-0.16
-0.24
-0.36
-0.43
-0.41
-0.36
-0.30
-0.25
-0.17
0.02
0.28
0.53
0.64
0.51
0.18
-0.20
-0.46
-0.49
-0.27
0.08
0.40
0.59
0.59
0.47
0.32
0.25
0.28
0.39
0.52
0.63
0.69
0.74
0.81
0.92
1.03
1.07
0.98
0.72
0.34
-0.07
-0.39
-0.59
-0.69
-0.74
-0.76
-0.77
-0.73
-0.64
-0.51
-0.43
-0.43
-0.53
-0.67
-0.80
-0.88
-0.95
-1.04
-1.16
-1.24
-1.21
-0.99
-0.60
-0.17
0.14
0.24
0.12
-0.09
-0.26
-0.30
-0.22
-0.09
0.02
0.08
0.10
0.14
0.24
0.38
0.56
0.72
0.86
1.00
1.19
1.48
1.87
2.31
2.70
2.93
2.93
2.67
2.23
1.74
1.32
1.04
0.87
0.74
0.55
0.29
-0.05
-0.43
-0.86
-1.40
-2.05
-2.78
-3.46
-3.94
-4.14
-4.10
-3.95
-3.89
-4.06
-4.49
-5.09
-5.72
-6.23
-6.55
-6.64
-6.49
-6.12
-5.56
-4.83
-4.00
-3.12
-2.27
-1.54
-0.99
-0.65
-0.46
-0.29
-0.01
0.45
1.02
1.54
1.79
1.70
1.36
0.98
0.78
0.84
1.01
1.02
0.54
-0.59
-2.33
-4.48
-6.73
-8.80
-10.44
-11.51
-11.98
-11.94
-11.53
-10.93
-10.23
-9.34
-8.00
-5.82
-2.48
2.10
7.64
13.55
19.10
23.58
26.57
27.94
27.82
26.53
24.40
21.75
18.85
15.98
13.38
11.26
9.68
8.60
7.83
7.15
6.38
5.38
4.17
2.81
1.47
0.33
-0.44
-0.77
-0.70
-0.43
-0.22
-0.30
-0.75
-1.48
-2.26
-2.88
-3.18
-3.13
-2.80
-2.27
-1.67
-1.13
-0.79
-0.75
-1.08
-1.74
-2.57
-3.34
-3.84
-3.97
-3.74
-3.25
-2.64
-1.97
-1.26
-0.51
0.24
0.93
1.44
1.72
1.71
1.45
0.98
0.34
-0.44
-1.30
-2.18
-3.00
-3.70
-4.29
-4.79
-5.20
-5.47
-5.51
-5.20
-4.52
-3.55
-2.45
-1.39
-0.51
0.16
0.62
0.88
1.00
0.98
0.84
0.62
0.33
0.01
-0.29
-0.59
-0.88
-1.15
-1.43
-1.70
-1.97
-2.23
-2.44
-2.59
-2.63
-2.57
-2.42
-2.25
-2.10
-2.00
-1.95
-1.89
-1.77
-1.54
-1.22
-0.86
-0.56
-0.44
-0.58
-1.02
-1.74
-2.61
-3.46
-4.09
-4.41
-4.43
-4.27
-4.09
-3.95
-3.79
-3.52
-3.07
-2.50
-1.97
-1.65
-1.57
-1.62
-1.62
-1.41
-0.97
-0.42
0.10
0.46
0.65
0.74
0.84
1.03
1.36
1.80
2.28
2.71
3.00
3.10
3.03
2.81
2.48
2.05
1.47
0.72
-0.19
-1.15
-2.04
-2.74
-3.24
-3.59
-3.83
-4.01
-4.08
-3.98
-3.67
-3.15
-2.53
-1.86
-1.21
-0.57
0.08
0.74
1.37
1.92
2.37
2.73
3.11
3.57
4.12
4.65
5.05
5.19
5.05
4.71
4.29
3.94
3.71
3.58
3.49
3.38
3.25
3.08
2.90
2.70
2.46
2.16
1.84
1.59
1.53
1.73
2.22
2.88
3.53
3.96
4.03
3.71
3.08
2.25
1.35
0.47
-0.35
-1.08
-1.67
-2.10
-2.33
-2.39
-2.32
-2.15
-1.90
-1.55
-1.08
-0.50
0.14
0.77
1.32
1.72
1.99
2.15
2.26
2.32
2.31
2.16
1.77
1.14
0.33
-0.51
-1.24
-1.75
-2.05
-2.22
-2.33
-2.37
-2.34
-2.21
-1.99
-1.77
-1.64
-1.70
-1.99
-2.50
-3.16
-3.82
-4.36
-4.67
-4.79
-4.83
-5.00
-5.45
-6.16
-6.96
-7.60
-7.86
-7.76
-7.44
-7.13
-6.98
-6.95
-6.86
-6.48
-5.69
-4.49
-3.05
-1.54
-0.11
1.19
2.40
3.57
4.71
5.73
6.55
7.09
7.36
7.47
7.58
7.82
8.21
8.71
9.20
9.63
9.99
10.34
10.73
11.13
11.33
11.07
10.03
8.06
5.21
1.78
-1.79
-5.03
-7.53
-9.04
-9.50
-8.95
-7.56
-5.67
-3.71
-2.17
-1.45
-1.74
-2.91
-4.57
-6.23
-7.50
-8.19
-8.28
-7.91
-7.15
-6.06
-4.66
-2.98
-1.14
0.73
2.48
4.05
5.45
6.73
7.96
9.17
10.36
11.52
12.66
13.82
15.02
16.26
17.50
18.71
19.89
21.13
22.59
24.46
26.83
29.61
32.62
35.60
38.41
41.06
43.71
46.60
49.89
53.57
57.49
61.42
65.14
68.57
71.89
75.42
79.58
84.63
90.57
97.05
103.57
109.65
115.10
120.14
125.30
131.44
139.56
150.83
166.26
186.13
209.24
232.58
251.65
261.70
259.41
244.16
218.22
185.69
150.84
116.56
83.81
52.04
20.09
-13.13
-48.39
-86.23
-126.75
-169.11
-210.92
-248.32
-276.82
-292.98
-295.70
-286.74
-269.96
-249.74
-229.61
-211.38
-195.46
-181.51
-169.13
-158.07
-148.11
-138.81
-129.58
-119.89
-109.55
-98.88
-88.51
-79.21
-71.44
-65.27
-60.33
-55.98
-51.60
-46.83
-41.70
-36.56
-31.90
-28.05
-25.04
-22.62
-20.38
-18.01
-15.38
-12.62
-9.97
-7.69
-5.97
-4.80
-4.08
-3.61
-3.21
-2.70
-2.05
-1.32
-0.63
-0.12
0.15
0.24
0.24
0.26
0.32
0.39
0.42
0.34
0.19
0.02
-0.10
-0.11
-0.01
0.17
0.39
0.58
0.70
0.72
0.65
0.51
0.35
0.22
0.12
0.04
-0.01
-0.02
0.01
0.13
0.30
0.49
0.64
0.69
0.62
0.46
0.25
0.04
-0.12
-0.24
-0.36
-0.50
-0.66
-0.79
-0.81
-0.68
-0.41
-0.08
0.21
0.37
0.40
0.34
0.26
0.21
0.20
0.23
0.29
0.42
0.61
0.84
1.03
1.08
0.94
0.64
0.30
0.03
-0.06
0.02
0.19
0.33
0.37
0.29
0.10
-0.19
-0.58
-1.08
-1.63
-2.16
-2.53
-2.67
-2.55
-2.24
-1.83
-1.41
-0.99
-0.56
-0.10
0.38
0.84
1.20
1.44
1.60
1.72
1.84
1.94
1.95
1.82
1.56
1.25
1.03
1.01
1.25
1.67
2.10
2.34
2.27
1.85
1.19
0.48
-0.11
-0.44
-0.52
-0.43
-0.31
-0.28
-0.38
-0.54
-0.67
-0.68
-0.53
-0.25
0.06
0.35
0.56
0.67
0.69
0.63
0.51
0.29
-0.04
-0.51
-1.04
-1.56
-1.93
-2.07
-1.98
-1.73
-1.43
-1.16
-0.90
-0.55
-0.07
0.51
1.00
1.19
0.96
0.37
-0.36
-0.94
-1.16
-1.01
-0.63
-0.27
-0.10
-0.14
-0.31
-0.45
-0.47
-0.40
-0.34
-0.42
-0.66
-1.00
-1.28
-1.39
-1.27
-0.98
-0.61
-0.22
0.19
0.65
1.16
1.65
2.03
2.18
2.07
1.73
1.24
0.72
0.25
-0.12
-0.35
-0.42
-0.32
-0.11
0.15
0.37
0.49
0.49
0.42
0.35
0.30
0.30
0.34
0.41
0.52
0.63
0.72
0.70
0.51
0.12
-0.42
-0.98
-1.41
-1.62
-1.60
-1.43
-1.18
-0.93
-0.69
-0.46
-0.26
-0.14
-0.19
-0.43
-0.81
-1.21
-1.47
-1.46
-1.18
-0.70
-0.15
0.31
0.56
0.59
0.45
0.27
0.17
0.23
0.44
0.72
1.01
1.23
1.36
1.40
1.36
1.25
1.09
0.89
0.68
0.47
0.28
0.13
0.03
-0.00
0.04
0.10
0.12
0.06
-0.08
-0.23
-0.29
-0.18
0.10
0.45
0.70
0.73
0.50
0.07
-0.38
-0.69
-0.73
-0.48
-0.02
0.51
0.95
1.19
1.19
1.00
0.65
0.24
-0.16
-0.46
-0.60
-0.54
-0.30
0.02
0.33
0.52
0.54
0.34
-0.04
-0.56
-1.10
-1.51
-1.64
-1.39
-0.78
0.02
0.77
1.25
1.35
1.12
0.72
0.29
-0.06
-0.32
-0.52
-0.68
-0.77
-0.75
-0.59
-0.30
0.01
0.22
0.25
0.11
-0.12
-0.28
-0.28
-0.10
0.19
0.44
0.54
0.47
0.28
0.06
-0.11
-0.22
-0.32
-0.43
-0.55
-0.61
-0.55
-0.34
-0.01
0.30
0.52
0.58
0.51
0.42
0.41
0.51
0.73
0.97
1.16
1.21
1.09
0.80
0.39
-0.04
-0.36
-0.48
-0.37
-0.08
0.27
0.53
0.61
0.52
0.31
0.11
-0.02
-0.05
-0.01
0.05
0.08
0.07
0.02
-0.06
-0.15
-0.21
-0.22
-0.18
-0.09
0.02
0.12
0.20
0.27
0.34
0.41
0.46
0.48
0.43
0.32
0.15
-0.03
-0.19
-0.30
-0.33
-0.27
-0.11
0.15
0.46
0.79
1.05
1.14
1.04
0.75
0.38
0.06
-0.13
-0.17
-0.16
-0.20
-0.37
-0.64
-0.95
-1.19
-1.33
-1.39
-1.41
-1.40
-1.33
-1.14
-0.83
-0.46
-0.16
-0.02
-0.07
-0.23
-0.38
-0.45
-0.45
-0.43
-0.44
-0.46
-0.44
-0.29
0.01
0.38
0.75
1.04
1.23
1.38
1.53
1.64
1.63
1.37
0.84
0.17
-0.42
-0.74
-0.68
-0.32
0.13
0.45
0.54
0.38
0.09
-0.19
-0.39
-0.48
-0.47
-0.41
-0.34
-0.28
-0.23
-0.20
-0.19
-0.22
-0.30
-0.46
-0.67
-0.87
-1.02
-1.09
-1.12
-1.22
-1.44
-1.74
-1.97
-1.90
-1.39
-0.41
0.83
2.03
2.85
3.14
2.93
2.41
1.85
1.44
1.26
1.23
1.23
1.12
0.87
0.49
0.06
-0.34
-0.64
-0.81
-0.82
-0.66
-0.33
0.12
0.58
0.93
1.08
1.01
0.77
0.44
0.10
-0.21
-0.45
-0.60
-0.67
-0.63
-0.54
-0.43
-0.39
-0.44
-0.57
-0.68
-0.69
-0.54
-0.24
0.12
0.42
0.55
0.47
0.24
-0.07
-0.35
-0.53
-0.56
-0.47
-0.30
-0.11
0.02
0.09
0.09
0.09
0.16
0.31
0.54
0.76
0.89
0.88
0.71
0.45
0.17
-0.07
-0.23
-0.34
-0.45
-0.60
-0.78
-0.96
-1.03
-0.93
-0.63
-0.20
0.22
0.47
0.47
0.22
-0.15
-0.48
-0.62
-0.54
-0.26
0.08
0.37
0.52
0.47
0.25
-0.05
-0.32
-0.46
-0.42
-0.23
0.03
0.29
0.51
0.69
0.85
0.98
1.03
0.96
0.70
0.31
-0.14
-0.49
-0.68
-0.68
-0.54
-0.35
-0.16
0.02
0.22
0.49
0.83
1.20
1.48
1.59
1.49
1.22
0.89
0.64
0.56
0.62
0.69
0.62
0.32
-0.16
-0.64
-0.91
-0.87
-0.57
-0.20
0.04
0.07
-0.06
-0.21
-0.23
-0.13
-0.00
0.02
-0.13
-0.38
-0.61
-0.73
-0.73
-0.65
-0.59
-0.54
-0.48
-0.37
-0.20
-0.00
0.14
0.20
0.15
0.04
-0.08
-0.16
-0.17
-0.13
-0.05
0.04
0.12
0.21
0.32
0.48
0.67
0.84
0.93
0.88
0.69
0.39
0.07
-0.19
-0.34
-0.39
-0.37
-0.33
-0.33
-0.41
-0.58
-0.81
-1.00
-1.04
-0.83
-0.36
0.28
0.94
1.48
1.77
1.76
1.47
1.00
0.50
0.08
-0.18
-0.28
-0.30
-0.31
-0.37
-0.48
-0.61
-0.71
-0.80
-0.90
-1.02
-1.14
-1.18
-1.11
-0.94
-0.76
-0.66
-0.66
-0.74
-0.81
-0.84
-0.82
-0.80
-0.82
-0.89
-0.98
-1.05
-1.04
-0.96
-0.83
-0.67
-0.54
-0.45
-0.42
-0.45
-0.54
-0.71
-0.96
-1.30
-1.71
-2.18
-2.66
-3.11
-3.49
-3.76
-3.86
-3.77
-3.48
-3.10
-2.75
-2.60
-2.78
-3.31
-4.16
-5.23
-6.44
-7.73
-9.10
-10.54
-12.02
-13.52
-15.03
-16.56
-18.17
-19.94
-21.92
-24.12
-26.55
-29.14
-31.87
-34.75
-37.86
-41.37
-45.46
-50.25
-55.67
-61.46
-67.26
-72.81
-78.06
-83.22
-88.70
-94.84
-101.73
-109.14
-116.65
-123.89
-130.82
-137.74
-145.33
-154.32
-165.37
-178.92
-195.15
-213.89
-234.44
-255.44
-274.87
-290.45
-300.29
-303.45
-300.29
-292.21
-281.10
-268.58
-255.65
-242.70
-229.73
-216.68
-203.43
-189.68
-174.83
-158.02
-138.60
-116.53
-92.64
-68.40
-45.34
-24.36
-5.27
13.15
32.58
54.36
78.77
104.94
131.23
155.96
178.20
198.17
217.10
236.95
259.98
288.31
323.12
363.62
406.07
443.86
468.99
474.76
458.56
423.35
376.76
328.22
285.55
252.53
228.63
210.58
194.64
178.35
160.95
142.82
124.63
106.81
89.53
72.94
57.36
43.31
31.37
21.84
14.53
8.81
3.81
-1.18
-6.38
-11.47
-16.13
-20.65
-26.49
-36.06
-51.87
-75.28
-105.54
-139.66
-173.12
-201.06
-219.61
-226.72
-222.26
-207.49
-184.25
-154.21
-118.57
-78.35
-34.98
9.20
50.96
86.85
114.29
132.40
142.14
145.66
145.10
141.86
136.44
128.89
119.59
109.52
99.98
92.02
85.95
81.21
76.75
71.64
65.41
58.31
51.04
44.41
38.98
34.88
31.77
29.10
26.35
23.22
19.71
16.09
12.69
9.73
7.34
5.53
4.31
3.73
3.86
4.73
6.23
8.18
10.30
12.34
14.10
15.49
16.48
17.04
17.22
17.04
16.58
15.95
15.30
14.76
14.44
14.36
14.46
14.60
14.70
14.73
14.79
15.02
15.54
16.37
17.45
18.62
19.74
20.78
21.76
22.85
24.23
26.07
28.47
31.45
34.92
38.76
42.86
47.21
51.84
56.88
62.40
68.42
74.87
81.60
88.51
95.59
102.97
110.91
119.70
129.49
140.32
152.09
164.65
177.82
191.32
204.75
217.49
228.75
237.53
242.66
242.92
237.23
224.94
206.12
181.81
153.79
124.18
94.77
66.58
39.70
13.45
-13.27
-41.69
-72.83
-107.08
-143.74
-180.62
-214.22
-240.65
-256.88
-261.88
-257.02
-245.42
-230.65
-215.52
-201.49
-188.91
-177.71
-168.00
-160.09
-154.17
-149.85
-146.07
-141.47
-134.95
-126.15
-115.55
-104.27
-93.53
-84.22
-76.66
-70.57
-65.35
-60.35
-55.22
-49.98
-44.94
-40.49
-36.81
-33.86
-31.36
-29.04
-26.74
-24.47
-22.40
-20.68
-19.36
-18.31
-17.37
-16.36
-15.23
-14.03
-12.90
-11.94
-11.15
-10.45
-9.69
-8.76
-7.67
-6.61
-5.94
-5.99
-6.96
-8.75
-11.03
-13.38
-15.44
-17.05
-18.28
-19.33
-20.39
-21.55
-22.74
-23.90
-24.97
-26.08
-27.49
-29.50
-32.33
-35.95
-40.10
-44.35
-48.31
-51.82
-55.06
-58.50
-62.64
-67.70
-73.46
-79.24
-84.19
-87.67
-89.61
-90.55
-91.47
-93.42
-97.22
-103.20
-111.06
-119.68
-127.02
-130.26
-126.28
-112.74
-89.08
-57.05
-20.33
16.72
50.48
78.99
102.00
120.15
134.05
143.82
149.25
150.31
147.62
142.38
135.92
129.18
122.42
115.43
107.81
99.44
90.61
81.93
74.08
67.56
62.49
58.62
55.40
52.23
48.69
44.66
40.35
36.12
32.33
29.15
26.53
24.21
21.89
19.35
16.54
13.59
10.73
8.13
5.91
4.05
2.49
1.13
-0.05
-1.03
-1.76
-2.21
-2.39
-2.35
-2.21
-2.06
-1.93
-1.82
-1.71
-1.59
-1.50
-1.47
-1.51
-1.59
-1.65
-1.68
-1.67
-1.69
-1.76
-1.90
-2.02
-2.02
-1.82
-1.45
-1.00
-0.57
-0.27
-0.10
-0.02
0.00
0.01
-0.02
-0.09
-0.21
-0.34
-0.45
-0.51
-0.55
-0.59
-0.70
-0.87
-1.08
-1.27
-1.39
-1.44
-1.51
-1.66
-1.95
-2.37
-2.82
-3.20
-3.46
-3.60
-3.70
-3.83
-4.04
-4.29
-4.46
-4.45
-4.19
-3.71
-3.11
-2.49
-1.95
-1.52
-1.20
-0.93
-0.64
-0.29
0.17
0.75
1.48
2.37
3.37
4.36
5.20
5.76
5.93
5.73
5.24
4.59
3.89
3.24
2.70
2.35
2.25
2.49
3.07
3.89
4.77
5.45
5.74
5.55
4.94
4.07
3.10
2.16
1.23
0.26
-0.82
-2.00
-3.18
-4.21
-4.90
-5.18
-5.08
-4.71
-4.24
-3.77
-3.38
-3.07
-2.85
-2.70
-2.61
-2.56
-2.51
-2.34
-1.95
-1.24
-0.25
0.88
1.91
2.63
2.90
2.77
2.44
2.17
2.22
2.71
3.56
4.61
5.63
6.45
7.00
7.27
7.28
7.02
6.49
5.70
4.72
3.68
2.69
1.82
1.07
0.39
-0.30
-1.00
-1.68
-2.30
-2.81
-3.23
-3.57
-3.85
-4.07
-4.22
-4.33
-4.43
-4.56
-4.72
-4.90
-5.05
-5.14
-5.20
-5.26
-5.35
-5.52
-5.73
-5.94
-6.13
-6.30
-6.50
-6.79
-7.16
-7.50
-7.59
-7.21
-6.22
-4.69
-2.86
-1.11
0.24
1.03
1.28
1.15
0.87
0.61
0.45
0.43
0.60
1.04
1.83
2.99
4.43
5.91
7.12
7.76
7.74
7.15
6.27
5.43
4.85
4.60
4.55
4.51
4.29
3.85
3.27
2.72
2.29
2.00
1.77
1.45
0.96
0.35
-0.26
-0.67
-0.78
-0.60
-0.29
-0.02
0.06
-0.09
-0.41
-0.77
-1.05
-1.20
-1.21
-1.17
-1.18
-1.30
-1.50
-1.68
-1.67
-1.31
-0.55
0.53
1.75
2.88
3.75
4.30
4.56
4.59
4.47
4.27
4.03
3.80
3.61
3.47
3.33
3.12
2.75
2.21
1.55
0.93
0.50
0.40
0.65
1.18
1.83
2.45
2.90
3.10
3.06
2.82
2.45
1.99
1.49
0.98
0.47
0.00
-0.35
-0.51
-0.41
-0.06
0.47
1.03
1.52
1.87
2.15
2.49
2.98
3.67
4.46
5.17
5.62
5.75
5.60
5.39
5.33
5.58
6.21
7.20
8.49
10.02
11.61
12.89
13.34
12.40
9.74
5.48
0.25
-5.02
-9.46
-12.56
-14.30
-14.96
-14.93
-14.44
-13.54
-12.25
-10.69
-9.16
-7.98
-7.40
-7.36
-7.60
-7.72
-7.40
-6.56
-5.34
-4.05
-2.99
-2.31
-1.98
-1.84
-1.71
-1.45
-1.08
-0.68
-0.36
-0.20
-0.21
-0.35
-0.57
-0.83
-1.07
-1.26
-1.36
-1.36
-1.25
-1.09
-0.91
-0.78
-0.67
-0.60
-0.54
-0.52
-0.56
-0.69
-0.87
-1.04
-1.11
-1.05
-0.92
-0.79
-0.77
-0.90
-1.13
-1.39
-1.58
-1.68
-1.70
-1.73
-1.85
-2.13
-2.57
-3.14
-3.72
-4.21
-4.51
-4.56
-4.41
-4.14
-3.93
-3.90
-4.18
-4.78
-5.68
-6.79
-8.00
-9.21
-10.34
-11.37
-12.34
-13.36
-14.55
-16.01
-17.76
-19.73
-21.83
-23.98
-26.25
-28.77
-31.73
-35.21
-39.18
-43.48
-47.89
-52.31
-56.74
-61.32
-66.23
-71.57
-77.34
-83.45
-89.79
-96.22
-102.62
-108.90
-115.03
-121.10
-127.49
-134.80
-143.65
-154.10
-165.17
-174.63
-179.37
-176.24
-163.07
-139.27
-105.84
-64.98
-19.63
26.91
71.09
109.39
138.87
157.89
166.68
167.24
162.57
155.59
148.29
141.42
134.96
128.71
122.66
117.07
112.19
108.00
104.20
100.42
96.37
91.99
87.40
82.77
78.23
73.76
69.28
64.63
59.76
54.71
49.69
45.04
41.09
37.96
35.57
33.58
31.60
29.37
26.92
24.58
22.80
21.95
22.07
22.91
23.96
24.71
24.89
24.59
24.21
24.31
25.38
27.62
30.85
34.54
38.01
40.77
42.69
44.18
46.00
48.94
53.42
59.28
65.84
72.17
77.54
81.76
85.18
88.57
92.95
99.38
108.77
121.41
136.39
151.12
161.45
162.77
151.56
126.93
91.19
49.09
6.12
-33.22
-66.41
-92.76
-112.58
-126.34
-134.35
-137.01
-135.26
-130.66
-124.99
-119.64
-115.16
-111.23
-107.01
-101.70
-95.03
-87.29
-79.27
-71.90
-65.89
-61.50
-58.45
-56.10
-53.69
-50.65
-46.79
-42.33
-37.75
-33.52
-29.95
-27.04
-24.59
-22.31
-20.02
-17.71
-15.48
-13.51
-11.87
-10.57
-9.50
-8.53
-7.55
-6.54
-5.52
-4.54
-3.64
-2.84
-2.12
-1.48
-0.93
-0.54
-0.36
-0.40
-0.59
-0.80
-0.89
-0.80
-0.58
-0.36
-0.27
-0.36
-0.56
-0.77
-0.84
-0.75
-0.56
-0.38
-0.37
-0.58
-0.97
-1.41
-1.73
-1.83
-1.68
-1.40
-1.14
-1.01
-1.04
-1.17
-1.30
-1.35
-1.31
-1.18
-0.98
-0.69
-0.30
0.20
0.77
1.31
1.72
1.90
1.87
1.66
1.36
1.05
0.77
0.50
0.22
-0.05
-0.25
-0.28
-0.10
0.24
0.58
0.70
0.48
-0.07
-0.75
-1.31
-1.57
-1.48
-1.14
-0.75
-0.44
-0.28
-0.23
-0.21
-0.14
0.01
0.23
0.48
0.75
1.01
1.27
1.51
1.71
1.83
1.80
1.58
1.15
0.59
-0.01
-0.51
-0.84
-1.00
-1.02
-1.02
-1.05
-1.14
-1.28
-1.41
-1.50
-1.57
-1.69
-1.92
-2.34
-2.94
-3.68
-4.44
-5.08
-5.51
-5.74
-5.87
-6.10
-6.59
-7.46
-8.64
-9.95
-11.17
-12.12
-12.82
-13.44
-14.31
-15.71
-17.76
-20.33
-23.12
-25.73
-27.85
-29.38
-30.51
-31.64
-33.29
-35.89
-39.52
-43.84
-48.07
-51.34
-53.01
-53.02
-52.07
-51.41
-52.36
-55.86
-61.98
-69.79
-77.46
-82.58
-82.68
-75.80
-61.19
-39.64
-13.60
13.39
37.63
56.33
68.37
74.36
76.06
75.51
74.25
72.97
71.72
70.31
68.61
66.66
64.58
62.33
59.69
56.42
52.40
47.83
43.16
38.95
35.63
33.27
31.60
30.12
28.32
25.96
23.12
20.16
17.55
15.63
14.45
13.80
13.27
12.51
11.35
9.86
8.28
6.89
5.87
5.24
4.89
4.68
4.48
4.26
4.02
3.79
3.60
3.43
3.21
2.82
2.17
1.16
-0.18
-1.71
-3.17
-4.34
-5.05
-5.28
-5.12
-4.75
-4.31
-3.92
-3.60
-3.37
-3.17
-2.94
-2.63
-2.19
-1.64
-1.06
-0.52
-0.11
0.14
0.26
0.30
0.33
0.39
0.50
0.65
0.84
1.03
1.17
1.30
1.48
1.86
2.53
3.51
4.69
5.83
6.72
7.26
7.51
7.68
8.00
8.63
9.57
10.68
11.71
12.45
12.78
12.73
12.45
12.20
12.25
12.91
14.40
16.81
19.82
22.67
24.20
23.17
18.81
11.24
1.64
-8.15
-16.26
-21.49
-23.67
-23.49
-22.03
-20.21
-18.50
-16.96
-15.51
-14.16
-13.11
-12.59
-12.63
-13.02
-13.34
-13.14
-12.22
-10.70
-8.92
-7.34
-6.26
-5.70
-5.51
-5.37
-5.06
-4.51
-3.77
-2.99
-2.30
-1.81
-1.52
-1.43
-1.51
-1.66
-1.80
-1.82
-1.65
-1.28
-0.79
-0.28
0.13
0.41
0.56
0.64
0.73
0.87
1.05
1.21
1.27
1.17
0.91
0.52
0.10
-0.27
-0.54
-0.72
-0.80
-0.80
-0.67
-0.40
-0.03
0.38
0.69
0.80
0.69
0.38
-0.05
-0.50
-0.92
-1.25
-1.46
-1.53
-1.41
-1.11
-0.69
-0.23
0.13
0.34
0.39
0.33
0.23
0.17
0.15
0.17
0.19
0.18
0.14
0.09
0.04
0.02
-0.02
-0.09
-0.20
-0.32
-0.36
-0.27
-0.06
0.23
0.49
0.63
0.61
0.46
0.25
0.08
-0.00
-0.02
-0.03
-0.09
-0.21
-0.35
-0.46
-0.50
-0.46
-0.37
-0.29
-0.26
-0.29
-0.41
-0.61
-0.84
-1.02
-1.04
-0.82
-0.38
0.18
0.68
0.98
1.03
0.89
0.70
0.60
0.62
0.76
0.93
1.06
1.11
1.07
0.92
0.65
0.26
-0.19
-0.62
-0.92
-1.03
-0.92
-0.66
-0.37
-0.20
-0.23
-0.45
-0.78
-1.08
-1.24
-1.22
-1.03
-0.75
-0.48
-0.25
-0.07
0.10
0.28
0.47
0.64
0.73
0.73
0.65
0.56
0.53
0.61
0.79
1.02
1.20
1.28
1.26
1.21
1.22
1.32
1.46
1.53
1.44
1.17
0.80
0.47
0.29
0.28
0.39
0.48
0.44
0.22
-0.18
-0.66
-1.13
-1.55
-1.90
-2.15
-2.29
-2.26
-2.04
-1.66
-1.23
-0.89
-0.77
-0.88
-1.15
-1.44
-1.67
-1.82
-1.97
-2.19
-2.53
-2.94
-3.31
-3.52
-3.59
-3.63
-3.88
-4.57
-5.81
-7.56
-9.55
-11.40
-12.79
-13.55
-13.81
-13.99
-14.61
-16.15
-18.74
-22.10
-25.57
-28.37
-29.99
-30.40
-30.22
-30.40
-31.92
-35.28
-40.26
-45.98
-51.27
-55.16
-57.30
-58.15
-58.82
-60.74
-65.25
-73.08
-83.99
-96.32
-106.90
-111.45
-105.72
-87.03
-55.79
-15.89
26.15
63.30
90.36
105.43
109.92
107.25
100.96
93.47
85.75
78.00
70.41
63.64
58.55
55.63
54.50
53.96
52.56
49.30
44.11
37.90
32.07
27.86
25.77
25.43
25.82
25.76
24.48
21.82
18.25
14.51
11.27
8.89
7.33
6.29
5.43
4.59
3.79
3.24
3.14
3.56
4.36
5.22
5.75
5.72
5.08
4.03
2.87
1.88
1.20
0.82
0.63
0.53
0.45
0.43
0.52
0.73
1.02
1.29
1.45
1.43
1.23
0.88
0.44
-0.03
-0.48
-0.89
-1.22
-1.43
-1.47
-1.31
-0.96
-0.48
0.03
0.47
0.75
0.83
0.76
0.60
0.42
0.30
0.25
0.25
0.24
0.16
-0.01
-0.23
-0.43
-0.51
-0.40
-0.11
0.27
0.67
0.99
1.19
1.28
1.28
1.20
1.04
0.83
0.59
0.38
0.23
0.17
0.22
0.37
0.59
0.83
1.05
1.23
1.39
1.62
2.01
2.58
3.30
4.03
4.65
5.06
5.22
5.15
4.88
4.39
3.68
2.79
1.86
1.08
0.64
0.59
0.86
1.26
1.62
1.88
2.15
2.64
3.49
4.68
5.92
6.80
7.00
6.43
5.35
4.31
3.88
4.43
5.97
8.15
10.42
12.28
13.49
14.14
14.56
15.14
16.21
18.01
20.66
24.16
28.16
31.77
33.64
32.32
26.97
17.94
6.88
-3.83
-12.01
-16.60
-17.88
-17.13
-15.74
-14.52
-13.48
-12.14
-10.07
-7.28
-4.21
-1.42
0.80
2.51
4.08
5.97
8.37
11.21
14.20
17.07
19.77
22.55
25.76
29.55
33.62
37.22
39.45
39.68
37.89
34.71
31.03
27.51
24.27
20.90
16.86
11.84
6.04
0.01
-5.58
-10.22
-13.67
-16.03
-17.73
-19.58
-22.61
-27.80
-35.54
-45.27
-55.53
-64.42
-70.41
-72.94
-72.54
-70.42
-67.79
-65.42
-63.60
-62.44
-62.20
-63.32
-66.21
-70.92
-76.89
-83.15
-88.68
-92.94
-96.11
-98.96
-102.32
-106.38
-110.27
-112.17
-109.94
-101.95
-87.64
-67.56
-42.99
-15.46
13.46
42.06
68.32
89.99
105.16
112.95
113.96
110.17
104.15
98.16
93.43
90.15
87.76
85.60
83.21
80.42
77.26
73.90
70.69
68.20
67.10
67.68
69.37
70.52
68.82
62.24
49.97
32.98
13.73
-4.76
-20.08
-31.10
-38.07
-42.08
-44.41
-46.09
-47.91
-50.31
-53.19
-55.55
-55.41
-50.37
-38.73
-20.56
1.89
24.94
44.92
59.66
69.09
74.81
78.82
82.49
86.07
89.16
91.53
93.63
96.61
101.82
110.21
121.91
136.02
150.64
163.12
170.65
170.85
162.62
146.59
125.25
102.34
82.04
67.88
61.98
64.67
74.64
89.51
106.46
122.74
135.94
144.28
146.84
143.80
136.35
126.30
115.29
103.92
91.43
75.98
55.44
28.46
-4.83
-42.52
-81.26
-117.01
-145.91
-165.06
-173.12
-170.51
-159.19
-142.02
-121.83
-100.86
-80.48
-61.46
-44.25
-29.16
-16.27
-5.27
4.68
14.81
26.30
39.82
54.96
69.96
81.79
86.94
82.34
66.51
40.30
6.83
-29.49
-64.65
-96.45
-125.01
-151.90
-178.43
-204.17
-226.54
-241.93
-247.62
-243.34
-231.64
-216.66
-202.24
-190.41
-180.96
-172.36
-163.14
-152.89
-142.37
-132.91
-125.55
-120.54
-117.31
-114.69
-111.49
-106.96
-101.04
-94.31
-87.72
-82.13
-77.97
-75.08
-73.02
-71.44
-70.13
-68.61
-65.50
-58.37
-44.50
-22.30
7.26
40.25
70.88
93.73
105.86
107.74
102.48
94.04
85.42
77.92
71.45
65.57
60.25
55.97
53.19
51.84
51.08
49.67
46.47
41.15
34.26
27.11
21.11
17.23
15.59
15.48
15.77
15.41
13.94
11.61
9.15
7.37
6.75
7.23
8.35
9.44
9.99
9.82
9.08
8.15
7.40
7.06
7.18
7.63
8.24
8.82
9.19
9.23
8.85
8.00
6.72
5.12
3.39
1.72
0.24
-0.97
-1.88
-2.53
-3.03
-3.53
-4.22
-5.26
-6.69
-8.38
-10.05
-11.40
-12.20
-12.33
-11.88
-11.03
-10.01
-9.05
-8.36
-8.09
-8.27
-8.74
-9.22
-9.32
-8.79
-7.52
-5.70
-3.64
-1.72
-0.17
0.87
1.40
1.48
1.19
0.67
0.07
-0.43
-0.66
-0.57
-0.25
0.10
0.22
-0.03
-0.66
-1.53
-2.36
-2.96
-3.22
-3.22
-3.14
-3.19
-3.53
-4.22
-5.16
-6.17
-6.87
-6.89
-5.87
-3.73
-0.69
2.67
5.65
7.69
8.56
8.44
7.73
6.86
6.07
5.35
4.57
3.64
2.64
1.71
1.00
0.52
0.13
-0.38
-1.13
-2.04
-2.93
-3.54
-3.74
-3.63
-3.47
-3.59
-4.16
-5.13
-6.26
-7.19
-7.70
-7.81
-7.80
-8.04
-8.87
-10.34
-12.23
-14.14
-15.71
-16.76
-17.45
-18.22
-19.51
-21.62
-24.50
-27.75
-30.76
-33.02
-34.33
-34.92
-35.38
-36.41
-38.52
-41.82
-46.03
-50.48
-54.21
-55.95
-54.30
-48.17
-37.28
-22.71
-6.75
7.61
17.72
22.15
21.07
15.81
8.15
-0.48
-9.27
-17.84
-25.92
-33.12
-39.16
-44.22
-49.06
-54.85
-62.63
-72.74
-84.59
-96.86
-108.13
-117.59
-125.51
-133.30
-143.08
-156.82
-175.43
-197.92
-221.23
-240.84
-252.04
-251.58
-238.74
-215.49
-185.63
-153.17
-120.84
-89.51
-58.47
-26.30
8.19
45.43
84.78
124.54
162.07
194.16
217.61
230.27
231.62
223.08
207.39
187.54
165.81
143.46
121.16
99.95
81.83
69.49
65.29
69.92
81.63
96.56
110.08
118.50
120.29
116.32
109.00
100.89
93.64
87.64
82.48
77.61
72.86
68.51
64.94
62.32
60.50
59.05
57.49
55.51
52.96
49.93
46.70
43.61
40.95
38.78
36.89
34.83
32.16
28.69
24.69
20.75
17.51
15.36
14.23
13.66
13.06
12.02
10.44
8.51
6.58
5.00
3.98
3.53
3.51
3.69
3.78
3.58
3.01
2.18
1.29
0.62
0.30
0.33
0.52
0.68
0.67
0.48
0.20
-0.06
-0.23
-0.30
-0.31
-0.31
-0.31
-0.29
-0.25
-0.17
-0.03
0.16
0.40
0.66
0.88
1.03
1.10
1.13
1.15
1.20
1.25
1.25
1.16
1.03
0.93
0.96
1.13
1.35
1.46
1.34
0.97
0.45
-0.02
-0.29
-0.29
-0.07
0.25
0.51
0.65
0.67
0.65
0.66
0.76
0.95
1.19
1.42
1.64
1.86
2.13
2.49
2.97
3.55
4.20
4.89
5.62
6.39
7.19
7.99
8.71
9.27
9.63
9.78
9.78
9.72
9.69
9.77
10.00
10.33
10.68
10.94
11.07
11.17
11.44
12.11
13.33
15.04
17.04
19.13
21.20
23.26
25.34
27.28
28.64
28.84
27.41
24.35
20.21
15.93
12.54
10.82
11.15
13.62
18.11
24.29
31.37
37.94
42.02
41.51
34.96
22.25
4.92
-14.26
-32.06
-45.87
-54.33
-57.54
-56.69
-53.34
-48.93
-44.37
-40.11
-36.34
-33.17
-30.71
-29.03
-28.05
-27.48
-26.84
-25.70
-23.84
-21.33
-18.53
-15.87
-13.71
-12.18
-11.15
-10.38
-9.60
-8.71
-7.77
-6.93
-6.37
-6.14
-6.19
-6.31
-6.28
-5.94
-5.26
-4.32
-3.29
-2.36
-1.66
-1.25
-1.08
-1.02
-0.97
-0.83
-0.57
-0.25
0.03
0.16
0.09
-0.13
-0.41
-0.63
-0.68
-0.52
-0.15
0.34
0.85
1.27
1.53
1.62
1.56
1.45
1.34
1.29
1.28
1.27
1.20
1.06
0.85
0.62
0.40
0.21
0.03
-0.14
-0.30
-0.43
-0.52
-0.58
-0.62
-0.67
-0.71
-0.74
-0.75
-0.74
-0.73
-0.71
-0.66
-0.54
-0.31
0.01
0.37
0.69
0.91
1.04
1.11
1.19
1.27
1.31
1.28
1.19
1.11
1.17
1.47
2.05
2.79
3.50
4.00
4.21
4.24
4.34
4.79
5.74
7.11
8.60
9.85
10.59
10.81
10.85
11.19
12.29
14.37
17.23
20.34
23.04
24.86
25.73
26.06
26.64
28.28
31.51
36.34
42.22
48.12
52.86
55.47
55.66
53.99
51.79
50.68
51.96
56.00
62.16
69.22
76.08
82.33
88.55
95.84
105.22
117.16
131.45
147.30
163.35
177.75
188.32
193.27
192.02
185.86
177.70
170.89
167.56
167.42
167.85
165.15
156.35
140.47
118.59
92.86
65.11
35.95
4.72
-29.73
-68.00
-109.19
-150.57
-187.97
-216.91
-234.12
-238.64
-232.14
-218.20
-200.85
-183.25
-167.03
-152.49
-139.45
-127.97
-118.51
-111.58
-107.15
-104.39
-101.95
-98.52
-93.49
-87.14
-80.49
-74.75
-70.74
-68.52
-67.40
-66.34
-64.41
-61.29
-57.38
-53.63
-50.99
-49.98
-50.40
-51.48
-52.22
-51.89
-50.26
-47.66
-44.70
-41.96
-39.72
-37.93
-36.37
-34.77
-32.98
-30.98
-28.84
-26.66
-24.55
-22.60
-20.89
-19.55
-18.62
-18.06
-17.70
-17.20
-16.20
-14.41
-11.68
-8.13
-4.11
-0.12
3.32
5.80
7.14
7.38
6.76
5.62
4.26
2.90
1.65
0.55
-0.42
-1.24
-1.87
-2.31
-2.56
-2.68
-2.71
-2.69
-2.59
-2.37
-2.05
-1.70
-1.45
-1.44
-1.70
-2.15
-2.59
-2.78
-2.57
-1.92
-0.94
0.19
1.31
2.37
3.39
4.40
5.40
6.32
7.04
7.47
7.62
7.58
7.47
7.36
7.21
6.92
6.43
5.74
5.00
4.37
3.99
3.86
3.90
3.99
4.03
3.99
3.90
3.76
3.61
3.43
3.23
2.96
2.64
2.26
1.84
1.41
0.98
0.57
0.18
-0.23
-0.65
-1.08
-1.49
-1.84
-2.11
-2.33
-2.53
-2.68
-2.78
-2.78
-2.70
-2.60
-2.56
-2.67
-2.95
-3.34
-3.74
-4.08
-4.33
-4.52
-4.67
-4.79
-4.85
-4.78
-4.52
-4.12
-3.64
-3.18
-2.83
-2.63
-2.55
-2.59
-2.72
-2.99
-3.43
-4.06
-4.84
-5.64
-6.32
-6.75
-6.89
-6.81
-6.70
-6.76
-7.15
-7.87
-8.75
-9.54
-9.98
-9.99
-9.70
-9.49
-9.78
-10.88
-12.83
-15.37
-18.03
-20.34
-22.12
-23.55
-25.09
-27.29
-30.49
-34.62
-39.24
-43.70
-47.37
-49.95
-51.50
-52.42
-53.26
-54.59
-56.77
-59.87
-63.52
-66.89
-68.76
-67.79
-62.93
-53.95
-41.61
-27.64
-14.11
-2.70
5.95
12.41
18.01
23.95
30.61
37.27
42.51
45.02
44.34
41.06
36.45
31.80
27.79
24.40
21.21
17.85
14.28
10.76
7.54
4.67
1.97
-0.72
-3.30
-5.39
-6.47
-6.04
-3.77
0.56
6.98
15.35
25.17
35.42
44.79
52.01
56.32
57.78
57.11
55.27
52.97
50.41
47.37
43.63
39.23
34.60
30.34
26.90
24.29
22.13
19.84
16.92
13.26
9.20
5.32
2.18
0.03
-1.33
-2.45
-3.97
-6.32
-9.52
-13.19
-16.78
-19.81
-22.11
-23.86
-25.54
-27.70
-30.83
-35.22
-40.81
-47.03
-52.72
-56.20
-55.71
-50.01
-39.00
-23.90
-7.02
9.00
22.11
31.48
37.64
42.06
46.44
52.00
59.22
67.79
77.02
86.14
94.49
101.67
107.51
112.08
115.64
118.71
121.86
125.62
130.21
135.45
140.88
145.92
150.29
154.24
158.55
164.34
172.65
184.01
197.95
212.75
225.57
233.10
232.36
221.67
201.19
172.71
138.96
102.57
65.14
26.84
-13.10
-55.36
-99.28
-142.30
-180.34
-209.13
-225.90
-230.45
-225.21
-214.08
-200.78
-187.69
-175.47
-163.80
-152.35
-141.44
-131.90
-124.43
-118.97
-114.54
-109.68
-103.28
-95.09
-85.77
-76.57
-68.66
-62.58
-58.14
-54.59
-51.04
-46.85
-41.92
-36.59
-31.49
-27.15
-23.82
-21.36
-19.39
-17.47
-15.31
-12.85
-10.32
-8.07
-6.39
-5.43
-5.11
-5.13
-5.16
-4.91
-4.23
-3.16
-1.87
-0.61
0.34
0.83
0.81
0.38
-0.26
-0.89
-1.32
-1.48
-1.43
-1.28
-1.19
-1.22
-1.35
-1.47
-1.47
-1.29
-0.91
-0.40
0.12
0.55
0.82
0.91
0.89
0.83
0.80
0.79
0.76
0.65
0.42
0.12
-0.21
-0.50
-0.72
-0.89
-1.02
-1.10
-1.10
-0.99
-0.79
-0.55
-0.34
-0.19
-0.11
-0.06
-0.03
-0.02
-0.05
-0.14
-0.30
-0.46
-0.58
-0.59
-0.50
-0.28
0.04
0.43
0.85
1.24
1.50
1.57
1.41
1.08
0.66
0.31
0.13
0.14
0.28
0.41
0.41
0.23
-0.07
-0.37
-0.58
-0.65
-0.64
-0.62
-0.64
-0.69
-0.73
-0.69
-0.57
-0.39
-0.21
-0.08
-0.03
-0.07
-0.20
-0.38
-0.53
-0.56
-0.42
-0.11
0.29
0.65
0.88
0.97
0.93
0.81
0.66
0.49
0.29
0.10
-0.03
-0.07
-0.04
-0.00
-0.04
-0.18
-0.40
-0.60
-0.63
-0.43
-0.01
0.53
1.06
1.44
1.60
1.53
1.26
0.83
0.32
-0.23
-0.75
-1.20
-1.54
-1.76
-1.81
-1.71
-1.45
-1.11
-0.77
-0.51
-0.38
-0.35
-0.30
-0.14
0.17
0.54
0.83
0.91
0.73
0.36
-0.05
-0.34
-0.43
-0.38
-0.29
-0.27
-0.39
-0.59
-0.75
-0.74
-0.48
0.03
0.69
1.34
1.84
2.13
2.21
2.15
2.01
1.78
1.45
1.00
0.45
-0.13
-0.64
-1.00
-1.19
-1.22
-1.10
-0.82
-0.38
0.20
0.81
1.33
1.61
1.58
1.26
0.79
0.33
0.01
-0.11
-0.07
0.03
0.09
0.02
-0.18
-0.46
-0.74
-0.90
-0.90
-0.74
-0.49
-0.29
-0.25
-0.39
-0.67
-0.95
-1.13
-1.13
-0.98
-0.76
-0.57
-0.48
-0.47
-0.51
-0.55
-0.58
-0.63
-0.69
-0.76
-0.77
-0.67
-0.44
-0.11
0.23
0.50
0.62
0.57
0.39
0.14
-0.11
-0.28
-0.33
-0.29
-0.22
-0.18
-0.23
-0.39
-0.60
-0.77
-0.83
-0.71
-0.42
-0.04
0.32
0.56
0.64
0.61
0.52
0.45
0.42
0.40
0.34
0.20
-0.00
-0.19
-0.29
-0.25
-0.08
0.16
0.39
0.57
0.73
0.92
1.21
1.56
1.84
1.93
1.72
1.26
0.72
0.29
0.10
0.16
0.33
0.47
0.47
0.33
0.15
0.03
-0.01
-0.00
-0.05
-0.21
-0.52
-0.93
-1.35
-1.67
-1.84
-1.82
-1.64
-1.38
-1.11
-0.86
-0.67
-0.57
-0.60
-0.79
-1.11
-1.40
-1.46
-1.12
-0.35
0.69
1.71
2.41
2.61
2.34
1.80
1.16
0.55
-0.02
-0.58
-1.13
-1.56
-1.74
-1.62
-1.24
-0.78
-0.41
-0.20
-0.14
-0.13
-0.08
0.02
0.11
0.15
0.09
-0.04
-0.15
-0.20
-0.18
-0.11
-0.02
0.04
0.08
0.10
0.09
0.05
0.02
0.02
0.10
0.25
0.41
0.52
0.48
0.30
0.03
-0.23
-0.43
-0.55
-0.61
-0.63
-0.56
-0.34
0.06
0.53
0.90
1.00
0.76
0.34
-0.01
-0.04
0.33
0.96
1.58
1.95
1.94
1.62
1.14
0.65
0.26
-0.02
-0.23
-0.39
-0.53
-0.63
-0.70
-0.76
-0.84
-0.98
-1.17
-1.38
-1.55
-1.60
-1.50
-1.27
-0.97
-0.68
-0.45
-0.29
-0.22
-0.22
-0.33
-0.56
-0.90
-1.25
-1.51
-1.55
-1.39
-1.12
-0.90
-0.87
-1.06
-1.36
-1.62
-1.73
-1.67
-1.50
-1.33
-1.23
-1.23
-1.28
-1.33
-1.39
-1.54
-1.87
-2.45
-3.22
-4.02
-4.61
-4.73
-4.21
-3.03
-1.33
0.59
2.33
3.57
4.13
4.00
3.41
2.62
1.88
1.29
0.82
0.36
-0.16
-0.72
-1.21
-1.50
-1.55
-1.43
-1.26
-1.17
-1.17
-1.18
-1.08
-0.81
-0.39
0.09
0.51
0.82
1.02
1.14
1.19
1.14
0.97
0.69
0.34
-0.02
-0.35
-0.72
-1.22
-1.92
-2.81
-3.76
-4.55
-5.03
-5.14
-4.99
-4.80
-4.83
-5.24
-6.07
-7.27
-8.68
-10.05
-11.05
-11.24
-10.20
-7.71
-3.86
0.80
5.45
9.26
11.70
12.69
12.56
11.84
10.99
10.24
9.57
8.90
8.13
7.29
6.48
5.83
5.43
5.28
5.29
5.32
5.23
4.94
4.48
3.95
3.51
3.22
3.07
2.91
2.59
2.03
1.31
0.60
0.11
-0.05
0.03
0.19
0.22
0.04
-0.27
-0.59
-0.78
-0.85
-0.87
-0.98
-1.25
-1.61
-1.90
-1.96
-1.70
-1.14
-0.41
0.31
0.91
1.37
1.73
2.04
2.34
2.61
2.79
2.82
2.64
2.26
1.74
1.13
0.50
-0.08
-0.56
-0.92
-1.13
-1.24
-1.29
-1.35
-1.44
-1.56
-1.67
-1.74
-1.75
-1.69
-1.55
-1.33
-1.00
-0.56
-0.06
0.42
0.77
0.89
0.76
0.46
0.11
-0.16
-0.27
-0.25
-0.17
-0.14
-0.24
-0.46
-0.71
-0.90
-0.99
-0.96
-0.89
-0.81
-0.72
-0.58
-0.32
0.11
0.68
1.32
1.93
2.41
2.70
2.76
2.60
2.22
1.65
0.95
0.20
-0.49
-1.01
-1.32
-1.43
-1.38
-1.26
-1.12
-0.99
-0.85
-0.70
-0.55
-0.42
-0.37
-0.39
-0.44
-0.46
-0.39
-0.24
-0.05
0.09
0.15
0.12
0.06
0.02
0.05
0.12
0.19
0.21
0.17
0.10
0.03
-0.01
-0.03
-0.08
-0.17
-0.33
-0.49
-0.62
-0.64
-0.51
-0.24
0.17
0.67
1.22
1.71
2.05
2.14
1.94
1.46
0.82
0.14
-0.44
-0.88
-1.16
-1.33
-1.43
-1.48
-1.49
-1.45
-1.33
-1.16
-0.94
-0.69
-0.41
-0.10
0.23
0.54
0.76
0.82
0.71
0.43
0.06
-0.31
-0.60
-0.77
-0.82
-0.79
-0.72
-0.65
-0.60
-0.61
-0.68
-0.81
-0.99
-1.21
-1.45
-1.71
-1.99
-2.28
-2.56
-2.82
-3.06
-3.31
-3.51
-3.56
-3.30
-2.58
-1.38
0.09
1.51
2.47
2.76
2.36
1.51
0.53
-0.32
-0.95
-1.39
-1.76
-2.14
-2.53
-2.93
-3.29
-3.63
-3.92
-4.19
-4.41
-4.57
-4.63
-4.56
-4.29
-3.81
-3.16
-2.48
-2.02
-2.02
-2.64
-3.86
-5.44
-6.97
-8.09
-8.54
-8.33
-7.69
-7.01
-6.65
-6.84
-7.60
-8.75
-10.08
-11.37
-12.55
-13.65
-14.76
-16.00
-17.50
-19.28
-21.28
-23.24
-24.62
-24.72
-22.85
-18.63
-12.27
-4.59
3.19
9.82
14.45
16.82
17.22
16.27
14.56
12.52
10.38
8.22
6.12
4.14
2.36
0.75
-0.78
-2.31
-3.76
-4.85
-5.13
-4.23
-2.02
1.20
4.82
8.11
10.57
12.03
12.65
12.78
12.76
12.77
12.82
12.83
12.69
12.33
11.69
10.68
9.26
7.49
5.53
3.68
2.29
1.59
1.56
1.96
2.36
2.34
1.61
0.09
-2.06
-4.50
-6.73
-8.15
-8.16
-6.33
-2.67
2.32
7.68
12.30
15.32
16.41
15.86
14.33
12.55
10.98
9.79
8.86
8.03
7.20
6.41
5.77
5.34
5.10
4.97
4.82
4.58
4.29
3.99
3.77
3.70
3.73
3.77
3.66
3.27
2.57
1.64
0.69
-0.08
-0.54
-0.69
-0.66
-0.57
-0.53
-0.54
-0.57
-0.57
-0.57
-0.65
-0.92
-1.42
-2.12
-2.88
-3.48
-3.72
-3.42
-2.53
-1.16
0.43
1.94
3.07
3.70
3.84
3.62
3.19
2.69
2.18
1.71
1.31
1.03
0.92
0.97
1.14
1.35
1.52
1.57
1.53
1.43
1.37
1.39
1.52
1.69
1.79
1.71
1.44
1.05
0.66
0.40
0.30
0.32
0.38
0.41
0.42
0.43
0.46
0.46
0.35
0.04
-0.48
-1.07
-1.58
-1.85
-1.84
-1.65
-1.48
-1.50
-1.76
-2.17
-2.54
-2.71
-2.67
-2.54
-2.51
-2.71
-3.08
-3.48
-3.72
-3.78
-3.82
-4.14
-4.94
-6.25
-7.82
-9.30
-10.42
-11.14
-11.66
-12.34
-13.45
-15.07
-17.09
-19.24
-21.32
-23.23
-25.05
-27.01
-29.38
-32.44
-36.32
-40.97
-46.16
-51.56
-56.83
-61.84
-66.69
-71.80
-77.68
-84.74
-93.06
-102.32
-111.98
-121.49
-130.54
-139.21
-147.91
-157.27
-168.01
-180.97
-196.87
-215.87
-237.01
-257.80
-274.40
-282.68
-279.54
-264.19
-238.48
-206.17
-171.42
-137.40
-105.53
-75.70
-47.03
-18.66
10.00
39.53
70.73
104.49
141.12
179.53
216.93
249.41
273.21
286.24
288.81
283.47
273.85
263.28
253.83
246.13
239.86
234.49
229.76
225.69
222.39
219.87
217.99
216.62
215.77
215.56
216.18
217.72
220.06
222.95
226.13
229.49
233.21
237.91
244.64
254.66
268.84
286.88
306.75
324.76
336.49
338.33
328.86
309.43
283.58
255.52
228.68
204.73
183.63
164.35
145.65
126.59
106.60
85.27
62.28
37.46
10.99
-16.62
-44.65
-72.40
-99.58
-126.66
-154.85
-185.81
-220.73
-259.20
-298.58
-334.19
-360.68
-374.03
-373.12
-360.25
-340.09
-317.81
-297.12
-279.45
-264.18
-249.89
-235.51
-221.00
-207.17
-195.09
-185.37
-177.85
-171.71
-165.82
-159.28
-151.84
-144.06
-137.02
-131.93
-129.63
-130.33
-133.65
-138.69
-143.99
-147.50
-146.57
-138.68
-122.41
-98.55
-70.34
-42.76
-20.74
-7.53
-3.66
-7.31
-15.55
-25.77
-36.47
-47.23
-58.01
-68.54
-78.17
-86.18
-92.32
-97.16
-102.05
-108.84
-119.47
-135.41
-157.03
-183.10
-210.57
-234.95
-251.46
-256.50
-248.91
-230.33
-204.42
-175.40
-146.42
-118.82
-92.31
-65.86
-38.59
-10.07
19.88
51.16
83.21
114.43
141.94
162.23
172.68
173.08
166.27
157.28
151.26
151.45
158.26
169.89
183.75
197.81
210.85
221.94
229.80
232.70
229.23
219.29
204.51
187.77
172.07
159.31
149.76
142.34
135.50
128.06
119.62
110.46
101.27
92.71
85.17
78.63
72.77
67.11
61.26
55.06
48.62
42.27
36.42
31.29
26.92
23.13
19.71
16.53
13.59
10.97
8.78
7.04
5.68
4.59
3.69
2.93
2.30
1.80
1.37
0.95
0.49
0.02
-0.41
-0.71
-0.82
-0.75
-0.60
-0.45
-0.40
-0.46
-0.61
-0.79
-0.94
-1.00
-0.96
-0.80
-0.55
-0.27
-0.01
0.15
0.17
0.04
-0.18
-0.43
-0.61
-0.70
-0.70
-0.65
-0.60
-0.60
-0.64
-0.70
-0.74
-0.71
-0.59
-0.38
-0.06
0.32
0.75
1.16
1.48
1.64
1.61
1.39
1.04
0.67
0.35
0.15
0.09
0.15
0.24
0.31
0.28
0.13
-0.12
-0.41
-0.66
-0.77
-0.69
-0.44
-0.09
0.28
0.58
0.77
0.87
0.91
0.92
0.95
0.99
1.08
1.19
1.32
1.40
1.34
1.09
0.65
0.08
-0.47
-0.91
-1.15
-1.21
-1.14
-1.02
-0.89
-0.81
-0.82
-0.93
-1.14
-1.39
-1.59
-1.65
-1.53
-1.25
-0.93
-0.65
-0.49
-0.41
-0.35
-0.23
-0.03
0.23
0.48
0.68
0.82
0.91
0.96
0.99
0.98
0.91
0.77
0.57
0.33
0.07
-0.18
-0.38
-0.48
-0.46
-0.29
-0.05
0.18
0.34
0.37
0.29
0.16
0.05
-0.01
-0.03
-0.06
-0.15
-0.34
-0.60
-0.84
-1.00
-1.01
-0.91
-0.76
-0.65
-0.64
-0.70
-0.79
-0.85
-0.82
-0.69
-0.45
-0.13
0.26
0.64
0.92
0.99
0.87
0.62
0.38
0.26
0.30
0.42
0.55
0.60
0.58
0.52
0.47
0.43
0.41
0.40
0.45
0.54
0.64
0.66
0.55
0.34
0.11
-0.02
-0.01
0.10
0.16
0.09
-0.10
-0.31
-0.41
-0.33
-0.10
0.18
0.38
0.49
0.55
0.63
0.77
0.93
1.00
0.90
0.58
0.11
-0.37
-0.71
-0.78
-0.55
-0.08
0.46
0.94
1.27
1.45
1.59
1.74
1.95
2.15
2.26
2.26
2.19
2.17
2.33
2.73
3.31
3.92
4.42
4.71
4.81
4.81
4.85
5.04
5.43
6.04
6.86
7.89
9.10
10.46
11.90
13.36
14.82
16.33
18.02
20.02
22.43
25.20
28.20
31.22
34.13
36.89
39.61
42.50
45.74
49.48
53.71
58.29
63.05
67.78
72.35
76.80
81.29
86.13
91.63
98.08
105.45
113.27
120.41
125.14
125.42
119.51
106.59
86.92
61.77
33.00
2.62
-27.44
-55.36
-79.49
-98.46
-111.51
-118.70
-120.90
-119.49
-115.85
-110.92
-105.03
-98.12
-90.11
-81.17
-71.83
-62.92
-55.23
-49.21
-44.77
-41.14
-37.10
-31.47
-23.53
-13.26
-1.44
10.49
20.58
26.73
27.31
21.77
11.22
-1.64
-13.30
-20.70
-22.39
-19.10
-13.19
-7.56
-4.40
-4.43
-7.02
-10.81
-14.43
-16.97
-18.07
-17.71
-16.02
-13.31
-9.99
-6.60
-3.83
-2.28
-2.24
-3.58
-5.68
-7.61
-8.41
-7.37
-4.24
0.81
7.03
13.12
17.25
17.39
12.01
0.76
-15.10
-32.86
-49.29
-61.71
-68.97
-71.51
-70.95
-69.05
-67.02
-65.29
-63.72
-62.14
-60.56
-59.25
-58.41
-57.99
-57.56
-56.44
-53.92
-49.53
-43.27
-35.69
-27.83
-20.98
-16.35
-14.69
-16.03
-19.71
-24.72
-30.19
-35.88
-42.17
-49.79
-59.16
-70.00
-81.49
-92.79
-103.69
-114.69
-126.25
-137.58
-146.04
-147.65
-138.74
-117.85
-86.70
-49.68
-12.14
21.50
48.84
69.40
83.86
93.24
98.64
101.26
102.51
103.66
105.33
107.18
108.08
106.84
102.92
96.67
89.11
81.32
74.01
67.29
60.88
54.43
47.88
41.48
35.64
30.71
26.73
23.41
20.15
16.37
11.63
5.77
-1.09
-8.43
-15.27
-20.21
-21.76
-18.94
-11.94
-2.36
7.08
13.45
14.80
11.05
4.12
-2.88
-6.91
-6.21
-0.92
7.22
15.76
22.60
26.61
27.80
26.88
24.73
21.95
18.82
15.52
12.37
9.87
8.43
8.04
8.16
7.99
7.00
5.26
3.56
2.95
4.12
7.02
10.73
13.97
15.59
15.14
12.88
9.69
6.65
4.67
4.34
5.73
8.47
11.79
14.81
16.79
17.42
16.90
15.77
14.60
13.69
13.03
12.35
11.46
10.38
9.43
9.07
9.63
11.20
13.48
15.97
18.18
19.84
20.96
21.84
22.79
24.07
25.71
27.63
29.58
31.21
32.00
31.38
28.94
24.66
19.10
13.31
8.42
5.25
3.94
4.02
4.73
5.53
6.37
7.60
9.70
12.78
16.38
19.51
21.07
20.21
16.68
10.84
3.52
-4.24
-11.53
-17.70
-22.33
-25.12
-25.78
-24.05
-19.79
-13.19
-4.82
4.42
13.56
21.86
29.05
35.35
41.30
47.52
54.52
62.51
71.10
79.17
84.87
86.18
81.69
71.47
57.39
42.52
29.78
20.41
13.28
5.55
-5.61
-21.24
-39.80
-57.92
-72.19
-80.84
-84.34
-84.68
-83.94
-83.10
-81.80
-79.07
-74.31
-67.93
-61.20
-55.45
-51.28
-48.32
-45.59
-42.11
-37.44
-31.92
-26.39
-21.79
-18.76
-17.36
-17.15
-17.29
-16.77
-14.75
-10.78
-4.97
2.11
9.55
16.52
22.53
27.54
31.86
35.85
39.68
43.21
46.12
48.20
49.57
50.68
52.20
54.75
58.70
64.05
70.33
76.60
81.45
83.25
80.56
72.66
59.85
43.43
25.27
7.04
-10.26
-26.39
-41.46
-55.39
-67.57
-76.99
-82.72
-84.54
-83.11
-79.77
-75.92
-72.53
-69.82
-67.46
-64.92
-61.96
-58.77
-55.83
-53.64
-52.35
-51.70
-51.12
-49.99
-48.00
-45.23
-42.14
-39.33
-37.25
-36.01
-35.35
-34.82
-33.94
-32.42
-30.13
-27.04
-23.04
-18.02
-12.00
-5.24
1.65
7.92
12.93
16.40
18.44
19.43
19.71
19.41
18.41
16.65
14.32
12.03
10.58
10.58
12.09
14.54
16.95
18.36
18.32
17.01
15.04
13.10
11.51
10.18
8.68
6.64
3.98
1.01
-1.75
-3.85
-5.10
-5.70
-6.12
-6.87
-8.32
-10.55
-13.31
-16.14
-18.59
-20.36
-21.46
-22.18
-23.01
-24.43
-26.84
-30.47
-35.24
-40.65
-45.66
-48.72
-48.23
-43.18
-33.76
-21.61
-9.35
0.31
5.59
6.28
3.59
-0.59
-4.68
-7.96
-10.67
-13.51
-17.09
-21.71
-27.40
-34.23
-42.16
-50.76
-58.74
-63.93
-63.94
-57.24
-43.99
-26.26
-7.18
10.22
24.09
34.01
40.61
44.79
47.25
48.35
48.41
47.89
47.36
47.26
47.70
48.43
49.04
49.19
48.70
47.55
45.82
43.71
41.50
39.52
38.01
36.98
36.17
35.16
33.65
31.63
29.48
27.81
27.14
27.62
28.94
30.48
31.57
31.86
31.39
30.55
29.87
29.72
30.20
31.14
32.22
33.13
33.76
34.17
34.60
35.38
36.79
38.98
41.84
45.05
48.06
50.21
50.88
49.61
46.22
40.84
33.85
25.86
17.62
9.81
2.96
-2.79
-7.67
-12.11
-16.47
-20.77
-24.56
-27.14
-27.86
-26.55
-23.65
-20.10
-16.96
-15.06
-14.73
-15.74
-17.48
-19.18
-20.20
-20.22
-19.30
-17.82
-16.25
-14.91
-13.81
-12.66
-11.00
-8.46
-4.96
-0.77
3.64
7.73
11.13
13.75
15.75
17.56
19.74
22.91
27.51
33.54
40.30
46.30
49.42
47.55
39.36
25.05
6.53
-13.06
-30.35
-42.86
-49.69
-51.57
-50.20
-47.37
-44.35
-41.63
-39.21
-36.96
-34.90
-33.23
-32.10
-31.42
-30.82
-29.83
-28.11
-25.65
-22.80
-20.11
-18.06
-16.84
-16.28
-15.96
-15.39
-14.30
-12.69
-10.88
-9.30
-8.30
-7.99
-8.19
-8.53
-8.63
-8.24
-7.38
-6.27
-5.21
-4.49
-4.20
-4.27
-4.49
-4.63
-4.52
-4.11
-3.44
-2.66
-1.93
-1.45
-1.36
-1.77
-2.63
-3.78
-4.93
-5.79
-6.20
-6.23
-6.14
-6.24
-6.71
-7.50
-8.33
-8.86
-8.86
-8.24
-7.08
-5.45
-3.35
-0.61
3.03
7.98
14.68
23.42
34.11
46.16
58.45
69.64
78.70
85.28
89.98
93.97
98.52
104.42
111.75
119.89
127.79
134.10
137.25
135.65
128.11
114.45
96.02
75.63
56.87
43.01
36.01
36.37
43.55
56.71
75.06
97.31
120.75
140.83
151.84
148.87
129.96
97.41
57.33
17.70
-14.27
-34.48
-42.80
-42.76
-40.02
-40.42
-48.17
-64.75
-88.62
-115.93
-141.96
-162.64
-175.73
-180.98
-179.56
-173.16
-163.28
-151.13
-137.88
-124.85
-113.45
-104.73
-98.90
-95.23
-92.35
-88.82
-83.79
-77.23
-69.85
-62.68
-56.52
-51.68
-47.92
-44.69
-41.45
-37.94
-34.27
-30.89
-28.33
-27.08
-27.24
-28.45
-29.79
-29.99
-27.90
-22.91
-15.39
-6.65
1.47
7.21
9.55
8.48
4.87
0.05
-4.64
-8.26
-10.41
-11.27
-11.40
-11.63
-12.72
-15.06
-18.50
-22.27
-25.36
-26.86
-26.41
-24.47
-22.16
-20.98
-22.35
-27.08
-34.86
-43.91
-51.08
-52.56
-45.22
-28.00
-2.75
26.13
53.26
74.29
87.41
93.70
95.93
96.83
97.72
98.09
96.56
92.14
85.32
78.21
73.85
75.06
83.29
97.75
115.11
130.09
136.63
129.55
106.10
67.00
16.39
-39.16
-92.55
-138.09
-172.91
-197.35
-214.03
-225.94
-234.65
-239.21
-236.36
-222.04
-193.46
-150.95
-98.51
-42.83
8.85
50.91
80.68
98.52
106.75
108.30
105.60
100.24
93.25
85.53
78.06
71.73
67.05
63.85
61.37
58.73
55.39
51.45
47.59
44.73
43.82
45.49
49.86
56.51
64.47
72.35
78.80
82.85
84.31
83.82
82.60
82.08
83.54
88.02
95.98
107.10
119.76
130.89
136.18
131.00
111.91
78.12
32.35
-19.56
-70.17
-112.55
-142.24
-158.04
-161.77
-156.98
-147.54
-136.60
-126.24
-117.64
-111.41
-107.77
-106.45
-106.62
-106.94
-106.08
-103.35
-99.07
-94.48
-91.12
-90.18
-91.92
-95.65
-100.02
-103.54
-104.94
-103.47
-98.97
-91.92
-83.33
-74.52
-66.78
-61.05
-57.76
-56.95
-58.69
-63.37
-71.75
-84.25
-99.86
-115.35
-125.60
-125.44
-112.00
-86.43
-53.51
-19.54
10.87
36.91
61.63
90.04
126.60
173.55
230.52
295.00
362.84
428.34
484.50
524.03
541.27
534.25
505.64
461.80
410.46
358.06
308.38
262.67
220.57
181.38
144.33
108.36
71.71
32.15
-12.00
-60.60
-110.93
-158.12
-196.41
-221.45
-231.87
-229.64
-219.10
-205.01
-190.80
-177.81
-165.75
-153.82
-141.74
-130.04
-119.69
-111.36
-105.05
-100.09
-95.47
-90.32
-84.01
-76.37
-67.54
-57.96
-48.24
-39.06
-31.02
-24.44
-19.37
-15.63
-13.00
-11.38
-10.78
-11.25
-12.61
-14.31
-15.55
-15.43
-13.38
-9.40
-4.07
1.63
6.76
10.77
13.73
16.22
19.01
22.59
26.91
31.27
34.65
36.05
34.95
31.42
26.00
19.40
12.22
4.88
-2.37
-9.35
-15.87
-21.79
-27.09
-31.84
-36.18
-40.23
-44.03
-47.61
-50.98
-54.17
-57.08
-59.49
-60.99
-61.16
-59.77
-56.92
-53.04
-48.76
-44.77
-41.52
-39.23
-37.76
-36.72
-35.63
-34.00
-31.54
-28.21
-24.27
-20.10
-16.15
-12.70
-9.84
-7.40
-5.00
-2.17
1.48
6.06
11.31
16.64
21.24
24.40
25.71
25.15
23.14
20.31
17.39
14.90
13.11
11.94
11.04
9.95
8.26
5.79
2.65
-0.83
-4.18
-7.04
-9.19
-10.56
-11.16
-11.06
-10.36
-9.25
-8.01
-6.98
-6.37
-6.21
-6.31
-6.37
-6.14
-5.53
-4.64
-3.69
-2.92
-2.49
-2.43
-2.67
-3.09
-3.53
-3.83
-3.93
-3.84
-3.61
-3.30
-2.97
-2.60
-2.17
-1.67
-1.14
-0.68
-0.39
-0.35
-0.54
-0.84
-1.13
-1.33
-1.43
-1.48
-1.58
-1.76
-2.01
-2.21
-2.22
-1.97
-1.44
-0.74
-0.05
0.51
0.85
0.97
0.94
0.85
0.77
0.73
0.77
0.86
0.96
1.01
0.96
0.78
0.50
0.17
-0.16
-0.44
-0.64
-0.77
-0.81
-0.78
-0.71
-0.63
-0.60
-0.66
-0.77
-0.88
-0.89
-0.75
-0.50
-0.21
0.03
0.16
0.18
0.18
0.20
0.27
0.38
0.51
0.62
0.69
0.71
0.71
0.68
0.63
0.55
0.44
0.30
0.15
0.02
-0.09
-0.23
-0.42
-0.66
-0.88
-1.00
-0.92
-0.64
-0.24
0.13
0.32
0.24
-0.10
-0.56
-0.97
-1.21
-1.21
-1.03
-0.76
-0.51
-0.35
-0.28
-0.27
-0.24
-0.15
0.00
0.20
0.38
0.51
0.52
0.42
0.21
-0.02
-0.19
-0.22
-0.11
0.07
0.23
0.28
0.17
-0.00
-0.14
-0.13
0.07
0.40
0.75
1.00
1.06
0.92
0.63
0.27
-0.01
-0.15
-0.10
0.10
0.37
0.63
0.80
0.86
0.82
0.72
0.58
0.45
0.32
0.22
0.12
-0.02
-0.19
-0.39
-0.56
-0.62
-0.56
-0.40
-0.24
-0.13
-0.09
-0.10
-0.07
0.02
0.15
0.22
0.12
-0.19
-0.63
-1.03
-1.18
-1.00
-0.53
0.03
0.48
0.72
0.76
0.71
0.67
0.68
0.69
0.61
0.43
0.18
-0.04
-0.19
-0.27
-0.32
-0.38
-0.45
-0.50
-0.49
-0.40
-0.25
-0.07
0.12
0.31
0.49
0.64
0.76
0.84
0.90
0.93
0.95
0.90
0.78
0.56
0.24
-0.17
-0.63
-1.06
-1.35
-1.39
-1.11
-0.54
0.19
0.85
1.26
1.30
1.01
0.53
0.03
-0.38
-0.66
-0.84
-0.96
-1.01
-0.96
-0.79
-0.53
-0.26
-0.07
-0.00
-0.07
-0.23
-0.42
-0.56
-0.58
-0.43
-0.08
0.39
0.84
1.11
1.12
0.89
0.55
0.26
0.15
0.22
0.40
0.58
0.69
0.73
0.74
0.75
0.78
0.83
0.88
0.93
0.93
0.84
0.64
0.32
-0.05
-0.36
-0.52
-0.46
-0.23
0.06
0.26
0.24
-0.02
-0.42
-0.82
-1.10
-1.22
-1.23
-1.23
-1.27
-1.32
-1.28
-1.07
-0.69
-0.27
0.05
0.12
-0.05
-0.36
-0.68
-0.92
-1.01
-0.94
-0.70
-0.29
0.27
0.86
1.30
1.43
1.19
0.66
0.07
-0.37
-0.53
-0.45
-0.26
-0.08
0.04
0.11
0.19
0.30
0.39
0.39
0.26
0.04
-0.20
-0.37
-0.41
-0.34
-0.19
0.00
0.23
0.48
0.75
1.00
1.15
1.17
1.04
0.82
0.59
0.45
0.43
0.49
0.54
0.50
0.38
0.27
0.26
0.39
0.62
0.82
0.89
0.79
0.60
0.43
0.37
0.41
0.46
0.43
0.28
0.04
-0.22
-0.43
-0.54
-0.55
-0.47
-0.31
-0.11
0.12
0.34
0.51
0.60
0.57
0.41
0.12
-0.27
-0.68
-1.01
-1.18
-1.13
-0.90
-0.59
-0.30
-0.11
-0.02
-0.04
-0.12
-0.27
-0.48
-0.72
-0.93
-1.04
-1.00
-0.83
-0.62
-0.44
-0.34
-0.27
-0.14
0.11
0.48
0.87
1.14
1.20
1.06
0.80
0.54
0.33
0.20
0.14
0.15
0.21
0.33
0.45
0.48
0.35
0.03
-0.37
-0.68
-0.75
-0.53
-0.13
0.25
0.42
0.33
0.04
-0.32
-0.58
-0.70
-0.65
-0.51
-0.31
-0.08
0.18
0.45
0.70
0.94
1.16
1.36
1.53
1.62
1.56
1.32
0.90
0.39
-0.06
-0.33
-0.38
-0.25
-0.06
0.06
0.02
-0.21
-0.58
-1.00
-1.36
-1.55
-1.53
-1.30
-0.93
-0.50
-0.09
0.24
0.47
0.58
0.61
0.57
0.47
0.33
0.17
-0.02
-0.20
-0.38
-0.54
-0.67
-0.79
-0.89
-0.95
-0.96
-0.89
-0.76
-0.59
-0.43
-0.34
-0.32
-0.40
-0.55
-0.69
-0.73
-0.58
-0.19
0.39
1.01
1.49
1.67
1.53
1.18
0.78
0.49
0.34
0.27
0.18
0.04
-0.14
-0.26
-0.24
-0.08
0.17
0.41
0.56
0.57
0.45
0.28
0.13
0.08
0.17
0.36
0.59
0.75
0.75
0.54
0.13
-0.41
-0.95
-1.39
-1.65
-1.69
-1.54
-1.26
-0.91
-0.58
-0.32
-0.18
-0.15
-0.20
-0.28
-0.31
-0.27
-0.12
0.10
0.34
0.55
0.71
0.78
0.79
0.76
0.71
0.67
0.65
0.69
0.78
0.91
0.97
0.88
0.57
0.05
-0.56
-1.10
-1.42
-1.44
-1.20
-0.82
-0.46
-0.20
-0.07
-0.02
0.02
0.08
0.17
0.24
0.26
0.20
0.08
-0.05
-0.15
-0.18
-0.13
-0.03
0.10
0.21
0.29
0.35
0.40
0.43
0.43
0.38
0.28
0.19
0.19
0.34
0.59
0.85
0.98
0.88
0.58
0.20
-0.09
-0.20
-0.12
0.06
0.22
0.32
0.39
0.48
0.63
0.78
0.83
0.68
0.34
-0.09
-0.46
-0.65
-0.61
-0.43
-0.22
-0.07
-0.01
0.00
0.04
0.15
0.30
0.42
0.43
0.34
0.19
0.09
0.12
0.27
0.46
0.58
0.54
0.34
0.04
-0.28
-0.55
-0.72
-0.79
-0.78
-0.71
-0.58
-0.45
-0.39
-0.48
-0.71
-1.05
-1.40
-1.64
-1.72
-1.61
-1.36
-1.04
-0.72
-0.45
-0.29
-0.26
-0.32
-0.40
-0.41
-0.28
-0.03
0.26
0.49
0.58
0.55
0.49
0.51
0.63
0.82
0.98
1.04
0.96
0.81
0.64
0.53
0.50
0.54
0.63
0.74
0.85
0.95
1.04
1.12
1.18
1.20
1.11
0.88
0.49
-0.01
-0.51
-0.89
-1.08
-1.08
-0.96
-0.81
-0.67
-0.53
-0.34
-0.11
0.13
0.27
0.23
0.02
-0.29
-0.58
-0.71
-0.64
-0.41
-0.11
0.15
0.30
0.33
0.28
0.21
0.18
0.19
0.19
0.13
0.01
-0.12
-0.19
-0.14
0.00
0.12
0.11
-0.09
-0.40
-0.66
-0.71
-0.49
-0.07
0.37
0.67
0.77
0.72
0.63
0.60
0.64
0.69
0.66
0.55
0.38
0.25
0.24
0.34
0.50
0.63
0.65
0.55
0.43
0.37
0.43
0.59
0.72
0.71
0.51
0.19
-0.12
-0.29
-0.30
-0.20
-0.10
-0.08
-0.14
-0.21
-0.25
-0.26
-0.29
-0.40
-0.55
-0.68
-0.71
-0.59
-0.37
-0.12
0.11
0.31
0.51
0.69
0.78
0.66
0.30
-0.26
-0.81
-1.14
-1.12
-0.78
-0.28
0.14
0.34
0.32
0.18
0.08
0.10
0.23
0.38
0.45
0.39
0.24
0.05
-0.13
-0.28
-0.42
-0.56
-0.69
-0.75
-0.71
-0.57
-0.35
-0.12
0.07
0.21
0.29
0.35
0.38
0.38
0.30
0.13
-0.11
-0.36
-0.54
-0.61
-0.59
-0.55
-0.55
-0.60
-0.64
-0.56
-0.28
0.17
0.67
1.07
1.26
1.20
0.96
0.61
0.22
-0.22
-0.70
-1.15
-1.46
-1.50
-1.22
-0.71
-0.16
0.24
0.39
0.35
0.22
0.14
0.16
0.26
0.38
0.47
0.56
0.69
0.88
1.12
1.31
1.36
1.19
0.81
0.35
-0.04
-0.24
-0.19
0.03
0.26
0.36
0.28
0.05
-0.21
-0.37
-0.37
-0.23
-0.03
0.14
0.21
0.18
0.05
-0.12
-0.30
-0.43
-0.50
-0.49
-0.43
-0.36
-0.28
-0.16
0.02
0.25
0.46
0.58
0.53
0.33
0.02
-0.30
-0.58
-0.78
-0.93
-1.03
-1.07
-1.05
-0.95
-0.81
-0.67
-0.56
-0.48
-0.37
-0.20
0.03
0.26
0.42
0.48
0.48
0.49
0.57
0.69
0.79
0.79
0.64
0.39
0.13
-0.04
-0.08
0.02
0.19
0.37
0.49
0.52
0.45
0.28
0.07
-0.12
-0.25
-0.29
-0.23
-0.09
0.09
0.22
0.23
0.03
-0.36
-0.87
-1.30
-1.49
-1.33
-0.88
-0.32
0.11
0.29
0.22
0.02
-0.16
-0.20
-0.08
0.16
0.41
0.62
0.72
0.69
0.55
0.35
0.17
0.06
0.03
0.06
0.11
0.17
0.25
0.34
0.42
0.44
0.35
0.16
-0.06
-0.22
-0.27
-0.19
-0.05
0.11
0.24
0.34
0.44
0.53
0.59
0.58
0.51
0.39
0.26
0.16
0.07
-0.03
-0.15
-0.30
-0.47
-0.65
-0.83
-1.00
-1.14
-1.23
-1.20
-1.03
-0.72
-0.30
0.11
0.43
0.59
0.65
0.68
0.77
0.94
1.13
1.21
1.08
0.76
0.36
0.02
-0.12
-0.05
0.15
0.35
0.46
0.44
0.31
0.14
-0.03
-0.19
-0.33
-0.45
-0.54
-0.58
-0.55
-0.47
-0.35
-0.25
-0.22
-0.29
-0.45
-0.65
-0.80
-0.83
-0.73
-0.54
-0.36
-0.24
-0.20
-0.19
-0.13
-0.01
0.18
0.35
0.44
0.40
0.21
-0.08
-0.40
-0.67
-0.82
-0.80
-0.63
-0.35
-0.03
0.26
0.47
0.58
0.57
0.45
0.26
0.08
0.00
0.10
0.38
0.77
1.15
1.41
1.48
1.37
1.13
0.81
0.49
0.20
0.01
-0.06
0.00
0.16
0.32
0.42
0.38
0.22
-0.02
-0.26
-0.45
-0.52
-0.48
-0.34
-0.18
-0.05
0.01
0.02
-0.01
-0.00
0.05
0.14
0.21
0.20
0.07
-0.20
-0.56
-0.96
-1.33
-1.59
-1.69
-1.61
-1.38
-1.03
-0.65
-0.30
-0.02
0.18
0.29
0.32
0.26
0.12
-0.05
-0.23
-0.34
-0.37
-0.35
-0.33
-0.33
-0.39
-0.48
-0.58
-0.68
-0.74
-0.76
-0.72
-0.59
-0.34
0.02
0.46
0.91
1.29
1.53
1.64
1.67
1.68
1.74
1.81
1.86
1.79
1.56
1.18
0.73
0.34
0.10
0.02
0.03
0.05
-0.01
-0.16
-0.36
-0.57
-0.71
-0.75
-0.72
-0.65
-0.56
-0.46
-0.32
-0.11
0.15
0.41
0.59
0.59
0.38
0.03
-0.34
-0.59
-0.61
-0.39
-0.03
0.32
0.54
0.57
0.46
0.28
0.13
0.04
0.01
0.03
0.13
0.33
0.63
1.01
1.36
1.59
1.62
1.42
1.07
0.64
0.26
-0.04
-0.22
-0.33
-0.40
-0.48
-0.60
-0.79
-1.05
-1.39
-1.75
-2.06
-2.24
-2.18
-1.87
-1.34
-0.73
-0.18
0.16
0.29
0.26
0.17
0.08
0.02
-0.06
-0.20
-0.38
-0.53
-0.58
-0.46
-0.22
0.04
0.20
0.23
0.16
0.09
0.09
0.18
0.31
0.42
0.45
0.42
0.38
0.39
0.46
0.55
0.61
0.61
0.53
0.40
0.25
0.13
0.05
0.04
0.08
0.17
0.28
0.39
0.48
0.53
0.52
0.41
0.21
-0.04
-0.29
-0.46
-0.51
-0.44
-0.29
-0.11
0.06
0.21
0.33
0.43
0.49
0.54
0.60
0.68
0.75
0.78
0.72
0.57
0.36
0.14
-0.02
-0.12
-0.15
-0.13
-0.05
0.08
0.27
0.47
0.62
0.66
0.55
0.30
-0.07
-0.45
-0.76
-0.90
-0.80
-0.49
-0.07
0.30
0.47
0.39
0.10
-0.26
-0.57
-0.74
-0.79
-0.78
-0.78
-0.82
-0.90
-1.00
-1.05
-1.02
-0.90
-0.70
-0.49
-0.33
-0.29
-0.35
-0.44
-0.50
-0.47
-0.39
-0.29
-0.24
-0.23
-0.21
-0.12
0.08
0.36
0.64
0.82
0.87
0.82
0.73
0.70
0.74
0.84
0.94
0.98
0.92
0.80
0.66
0.55
0.45
0.36
0.25
0.15
0.10
0.15
0.29
0.44
0.50
0.41
0.17
-0.15
-0.46
-0.71
-0.87
-0.94
-0.92
-0.74
-0.38
0.11
0.61
0.92
0.92
0.59
0.10
-0.34
-0.54
-0.45
-0.15
0.22
0.56
0.84
1.07
1.24
1.28
1.15
0.87
0.54
0.30
0.24
0.32
0.40
0.34
0.09
-0.24
-0.47
-0.49
-0.25
0.11
0.46
0.66
0.70
0.60
0.41
0.16
-0.16
-0.56
-0.99
-1.39
-1.65
-1.73
-1.67
-1.52
-1.38
-1.30
-1.26
-1.23
-1.14
-0.99
-0.79
-0.57
-0.38
-0.23
-0.13
-0.07
-0.05
-0.01
0.06
0.19
0.36
0.50
0.54
0.41
0.14
-0.22
-0.54
-0.72
-0.71
-0.52
-0.22
0.08
0.32
0.46
0.54
0.63
0.77
0.96
1.11
1.14
0.98
0.66
0.27
-0.07
-0.27
-0.31
-0.22
-0.08
0.05
0.16
0.25
0.34
0.45
0.53
0.56
0.51
0.41
0.31
0.29
0.37
0.53
0.68
0.73
0.62
0.37
0.08
-0.15
-0.24
-0.23
-0.17
-0.14
-0.19
-0.26
-0.33
-0.36
-0.38
-0.45
-0.61
-0.80
-0.95
-0.97
-0.83
-0.58
-0.34
-0.19
-0.15
-0.19
-0.22
-0.20
-0.15
-0.12
-0.13
-0.17
-0.20
-0.17
-0.07
0.08
0.18
0.20
0.11
-0.08
-0.30
-0.49
-0.61
-0.66
-0.64
-0.58
-0.51
-0.45
-0.43
-0.43
-0.47
-0.49
-0.43
-0.24
0.07
0.47
0.83
1.06
1.09
0.95
0.73
0.56
0.52
0.63
0.83
1.01
1.09
1.02
0.83
0.61
0.44
0.38
0.43
0.55
0.67
0.77
0.83
0.86
0.84
0.74
0.50
0.13
-0.32
-0.73
-0.99
-1.02
-0.84
-0.51
-0.15
0.14
0.31
0.33
0.25
0.12
-0.02
-0.13
-0.23
-0.33
-0.48
-0.67
-0.89
-1.09
-1.18
-1.10
-0.85
-0.50
-0.15
0.08
0.14
0.09
0.03
0.07
0.29
0.61
0.91
1.06
0.98
0.72
0.38
0.09
-0.07
-0.08
-0.01
0.07
0.13
0.19
0.25
0.34
0.43
0.44
0.29
-0.05
-0.50
-0.91
-1.13
-1.07
-0.75
-0.31
0.07
0.26
0.23
0.05
-0.15
-0.25
-0.21
-0.05
0.17
0.35
0.44
0.43
0.34
0.24
0.17
0.19
0.30
0.46
0.61
0.71
0.72
0.65
0.53
0.39
0.20
-0.04
-0.33
-0.59
-0.70
-0.59
-0.25
0.17
0.50
0.59
0.45
0.20
-0.00
-0.04
0.05
0.19
0.25
0.21
0.10
-0.01
-0.08
-0.11
-0.16
-0.26
-0.45
-0.71
-0.95
-1.10
-1.10
-0.95
-0.70
-0.46
-0.32
-0.33
-0.46
-0.64
-0.78
-0.83
-0.78
-0.69
-0.58
-0.48
-0.40
-0.34
-0.31
-0.28
-0.24
-0.14
0.04
0.29
0.54
0.74
0.86
0.94
1.01
1.09
1.17
1.21
1.16
1.01
0.80
0.59
0.43
0.34
0.32
0.39
0.55
0.80
1.05
1.19
1.13
0.85
0.43
0.03
-0.19
-0.21
-0.10
-0.01
-0.07
-0.31
-0.63
-0.89
-0.98
-0.90
-0.72
-0.56
-0.50
-0.52
-0.57
-0.59
-0.55
-0.47
-0.41
-0.42
-0.49
-0.58
-0.63
-0.61
-0.50
-0.32
-0.14
0.01
0.05
-0.03
-0.20
-0.41
-0.53
-0.51
-0.32
-0.02
0.28
0.49
0.54
0.46
0.28
0.05
-0.18
-0.39
-0.51
-0.50
-0.32
0.03
0.46
0.86
1.11
1.18
1.08
0.90
0.71
0.56
0.44
0.31
0.17
0.05
0.00
0.09
0.32
0.63
0.93
1.10
1.07
0.86
0.54
0.22
-0.00
-0.10
-0.09
-0.01
0.08
0.16
0.23
0.23
0.15
-0.03
-0.32
-0.66
-0.94
-1.10
-1.08
-0.91
-0.67
-0.42
-0.23
-0.12
-0.09
-0.13
-0.20
-0.29
-0.34
-0.32
-0.20
-0.02
0.14
0.16
-0.02
-0.35
-0.70
-0.86
-0.73
-0.30
0.24
0.63
0.67
0.33
-0.22
-0.71
-0.94
-0.84
-0.50
-0.10
0.23
0.43
0.53
0.56
0.51
0.36
0.11
-0.19
-0.42
-0.50
-0.39
-0.17
0.08
0.27
0.38
0.44
0.49
0.53
0.52
0.38
0.11
-0.24
-0.55
-0.70
-0.60
-0.29
0.14
0.54
0.80
0.89
0.83
0.70
0.52
0.34
0.17
0.04
0.01
0.13
0.41
0.79
1.16
1.39
1.38
1.10
0.63
0.08
-0.37
-0.62
-0.63
-0.49
-0.31
-0.24
-0.34
-0.55
-0.74
-0.80
-0.68
-0.44
-0.19
-0.03
0.03
0.05
0.09
0.17
0.29
0.38
0.39
0.29
0.08
-0.22
-0.57
-0.87
-1.05
-1.00
-0.74
-0.34
0.05
0.28
0.30
0.18
0.03
-0.07
-0.11
-0.16
-0.31
-0.55
-0.79
-0.93
-0.87
-0.63
-0.28
0.10
0.44
0.70
0.87
0.95
0.92
0.81
0.68
0.62
0.68
0.87
1.12
1.30
1.33
1.17
0.86
0.48
0.14
-0.11
-0.21
-0.17
-0.02
0.16
0.26
0.23
0.05
-0.18
-0.33
-0.33
-0.16
0.07
0.20
0.11
-0.22
-0.69
-1.12
-1.36
-1.32
-1.01
-0.56
-0.12
0.19
0.31
0.26
0.12
-0.03
-0.14
-0.19
-0.18
-0.09
0.07
0.30
0.52
0.64
0.56
0.23
-0.28
-0.81
-1.17
-1.26
-1.07
-0.73
-0.37
-0.09
0.08
0.22
0.39
0.61
0.84
1.00
1.01
0.86
0.60
0.33
0.13
0.04
0.06
0.14
0.21
0.24
0.22
0.16
0.11
0.12
0.21
0.36
0.49
0.53
0.43
0.17
-0.18
-0.52
-0.80
-0.98
-1.07
-1.06
-0.95
-0.70
-0.35
0.04
0.35
0.49
0.43
0.22
-0.01
-0.16
-0.21
-0.18
-0.15
-0.19
-0.32
-0.49
-0.66
-0.76
-0.76
-0.64
-0.41
-0.09
0.24
0.53
0.70
0.73
0.65
0.53
0.45
0.46
0.55
0.66
0.72
0.68
0.54
0.33
0.08
-0.22
-0.56
-0.94
-1.31
-1.61
-1.76
-1.73
-1.55
-1.27
-0.99
-0.75
-0.54
-0.33
-0.09
0.19
0.49
0.74
0.92
0.99
0.95
0.84
0.70
0.59
0.52
0.52
0.55
0.57
0.55
0.46
0.33
0.18
0.10
0.14
0.29
0.50
0.66
0.68
0.53
0.27
0.04
-0.07
-0.01
0.20
0.45
0.63
0.69
0.63
0.48
0.30
0.13
-0.00
-0.07
-0.07
-0.02
0.03
0.01
-0.13
-0.41
-0.77
-1.09
-1.26
-1.22
-0.98
-0.63
-0.26
0.05
0.29
0.49
0.66
0.80
0.84
0.73
0.43
-0.01
-0.49
-0.87
-1.04
-0.96
-0.69
-0.35
-0.04
0.17
0.29
0.38
0.51
0.68
0.84
0.92
0.83
0.58
0.21
-0.20
-0.57
-0.86
-1.04
-1.09
-0.99
-0.76
-0.41
-0.04
0.29
0.51
0.58
0.50
0.30
0.01
-0.31
-0.63
-0.89
-1.04
-1.04
-0.85
-0.50
-0.04
0.40
0.69
0.71
0.41
-0.11
-0.64
-0.96
-0.93
-0.53
0.10
0.73
1.20
1.41
1.40
1.25
1.06
0.87
0.69
0.51
0.31
0.10
-0.08
-0.18
-0.17
-0.05
0.13
0.32
0.49
0.61
0.67
0.70
0.69
0.62
0.47
0.22
-0.11
-0.48
-0.81
-1.05
-1.14
-1.10
-0.95
-0.77
-0.63
-0.59
-0.63
-0.71
-0.71
-0.57
-0.28
0.09
0.45
0.70
0.83
0.84
0.76
0.62
0.42
0.18
-0.10
-0.36
-0.57
-0.69
-0.71
-0.67
-0.62
-0.64
-0.73
-0.85
-0.91
-0.81
-0.53
-0.11
0.31
0.59
0.63
0.46
0.17
-0.12
-0.31
-0.33
-0.18
0.14
0.58
1.10
1.61
1.99
2.16
2.06
1.72
1.22
0.66
0.15
-0.27
-0.56
-0.76
-0.96
-1.21
-1.50
-1.78
-1.91
-1.81
-1.46
-0.97
-0.50
-0.19
-0.11
-0.19
-0.32
-0.39
-0.31
-0.07
0.33
0.84
1.40
1.92
2.30
2.45
2.33
1.94
1.40
0.83
0.35
0.04
-0.12
-0.17
-0.15
-0.10
-0.01
0.11
0.25
0.35
0.36
0.25
0.03
-0.26
-0.59
-0.89
-1.14
-1.29
-1.28
-1.06
-0.62
-0.04
0.51
0.89
1.00
0.88
0.65
0.47
0.43
0.49
0.55
0.50
0.31
0.04
-0.20
-0.33
-0.33
-0.25
-0.17
-0.15
-0.24
-0.39
-0.56
-0.69
-0.71
-0.59
-0.35
-0.06
0.22
0.40
0.43
0.31
0.04
-0.32
-0.71
-1.04
-1.22
-1.19
-0.97
-0.63
-0.31
-0.10
-0.04
-0.09
-0.17
-0.20
-0.15
-0.06
0.03
