1540451586.00
64.000000
-0.00
-0.00
-0.00
-0.00
-0.00
-0.00
-0.00
-0.00
-0.00
-0.00
0.00
0.01
0.01
-0.00
-0.03
-0.05
-0.05
0.00
0.13
0.36
0.66
1.01
1.37
1.72
2.06
2.40
2.79
3.24
3.80
4.42
5.06
5.66
6.20
6.68
7.15
7.68
8.31
9.14
10.09
11.04
11.88
12.56
13.14
13.76
14.65
15.96
17.91
20.32
22.90
25.38
27.58
29.57
31.68
34.32
37.81
42.54
48.15
54.10
59.83
64.97
69.58
74.14
79.34
85.71
93.76
103.00
112.62
121.73
129.77
136.75
143.30
150.75
157.77
166.64
177.95
191.79
206.97
220.57
228.25
225.36
208.53
176.87
132.76
80.05
23.07
-34.94
-92.44
-149.16
-205.23
-260.37
-313.74
-363.87
-409.83
-450.91
-486.50
-515.74
-537.23
-549.22
-549.96
-538.37
-514.21
-478.67
-433.88
-382.45
-327.02
-269.84
-212.63
-156.66
-102.95
-52.37
-5.90
35.58
71.43
101.35
125.50
144.38
158.69
169.15
176.37
180.75
182.57
182.07
179.51
175.23
169.65
163.18
156.15
148.81
141.30
133.69
126.02
118.33
110.69
103.16
95.80
88.68
81.83
75.25
68.95
62.95
57.25
51.86
46.78
42.03
37.59
33.45
29.61
26.07
22.81
19.83
17.11
14.67
12.48
10.54
8.83
7.35
6.07
4.97
4.05
3.27
2.62
2.09
1.65
1.30
1.01
0.79
0.61
0.47
0.37
0.29
0.23
0.19
0.16
0.15
0.15
0.15
0.17
0.19
0.22
0.25
0.29
0.33
0.37
0.42
0.47
0.51
0.56
0.61
0.67
0.73
0.79
0.85
0.93
1.00
1.09
1.19
1.30
1.42
1.56
1.72
1.89
2.08
2.30
2.53
2.80
3.08
3.41
3.76
4.14
4.55
5.01
5.50
6.03
6.59
7.20
7.85
8.55
9.29
10.07
10.90
11.78
12.70
13.67
14.70
15.79
16.94
18.16
19.42
20.71
21.97
23.13
24.10
24.77
25.01
24.69
23.74
22.07
19.67
16.58
12.86
8.68
4.22
-0.32
-4.73
-8.78
-12.33
-15.22
-17.38
-18.78
-19.42
-19.40
-18.82
-17.83
-16.56
-15.12
-13.59
-12.01
-10.37
-8.66
-6.89
-5.09
-3.31
-1.57
0.12
1.79
3.48
5.27
7.28
9.43
11.66
13.89
16.05
18.13
20.16
22.27
24.66
27.56
30.80
34.21
37.58
40.71
43.46
45.89
48.24
50.91
54.32
58.26
62.41
66.34
69.62
71.94
73.33
74.19
75.10
76.73
78.76
80.62
81.46
80.28
76.20
68.62
57.04
40.59
22.79
4.68
-13.46
-31.98
-51.53
-72.99
-97.18
-124.41
-154.00
-183.71
-210.65
-230.97
-241.33
-240.13
-228.20
-208.47
-184.81
-160.61
-137.82
-117.51
-99.70
-84.26
-71.32
-61.19
-53.92
-49.06
-45.66
-42.59
-39.38
-35.99
-32.87
-30.78
-30.40
-32.16
-36.01
-41.36
-47.12
-51.96
-54.34
-52.93
-46.90
-36.25
-21.80
-4.89
12.96
30.43
46.51
60.57
72.14
80.89
86.59
89.21
89.07
86.80
83.28
79.28
75.31
71.57
67.91
64.13
60.06
55.71
51.24
46.86
42.77
39.07
35.74
32.75
29.96
27.18
24.15
20.55
16.22
11.12
5.48
-0.30
-5.81
-10.86
-15.49
-19.99
-24.77
-30.21
-36.58
-43.89
-51.77
-59.38
-65.45
-68.50
-67.26
-61.05
-50.10
-35.50
-18.84
-1.84
14.07
27.90
39.05
47.25
52.49
54.98
55.18
53.75
51.41
48.75
46.10
43.53
40.85
37.85
34.36
30.43
26.32
22.48
19.29
16.98
15.46
14.29
12.89
10.72
7.51
3.35
-1.38
-6.20
-10.76
-14.96
-18.97
-23.10
-27.83
-33.50
-40.33
-48.19
-56.50
-64.17
-69.75
-71.77
-69.13
-61.49
-49.41
-34.13
-17.27
-0.41
15.21
28.69
39.50
47.33
52.07
53.89
53.27
50.94
47.69
44.21
40.86
37.64
34.37
30.83
26.96
22.92
18.99
15.48
12.50
9.97
7.58
4.92
1.65
-2.40
-7.17
-12.37
-17.63
-22.72
-27.56
-32.38
-37.63
-43.78
-51.21
-59.92
-69.40
-78.52
-85.66
-89.04
-87.15
-79.25
-65.67
-47.74
-27.39
-6.66
12.74
29.70
43.62
54.25
61.56
65.69
66.96
65.98
63.54
60.45
57.40
54.68
52.18
49.53
46.32
42.35
37.74
32.92
28.42
24.62
21.61
19.16
16.77
13.87
10.05
5.17
-0.58
-6.80
-13.01
-18.88
-24.31
-29.52
-34.93
-41.07
-48.44
-57.32
-67.58
-78.46
-88.49
-95.69
-98.01
-93.94
-83.08
-66.29
-45.47
-23.00
-1.05
18.80
35.68
49.28
59.54
66.55
70.53
71.87
71.18
69.15
66.50
63.65
60.77
57.75
54.35
50.37
45.81
40.93
36.09
31.76
28.17
25.32
22.94
20.58
17.82
14.40
10.26
5.50
0.30
-5.18
-10.78
-16.38
-21.93
-27.49
-33.35
-40.01
-47.96
-57.44
-68.08
-78.68
-87.38
-92.11
-91.17
-83.80
-70.41
-52.48
-32.01
-11.07
8.70
26.17
40.69
51.95
59.81
64.34
65.90
65.09
62.73
59.62
56.35
53.16
50.01
46.67
42.98
38.97
34.85
30.97
27.66
25.04
23.02
21.27
19.38
16.91
13.59
9.31
4.22
-1.39
-7.12
-12.66
-17.89
-22.90
-28.04
-33.78
-40.62
-48.82
-58.23
-68.09
-76.99
-83.13
-84.74
-80.60
-70.50
-55.28
-36.69
-16.83
2.38
19.57
33.92
45.10
52.98
57.62
59.21
58.23
55.44
51.76
48.01
44.69
41.88
39.29
36.56
33.41
29.85
26.12
22.56
19.49
17.02
15.05
13.19
10.96
7.85
3.55
-1.90
-8.15
-14.64
-20.80
-26.30
-31.23
-36.08
-41.58
-48.49
-57.28
-67.77
-78.95
-89.00
-95.62
-96.66
-90.81
-78.04
-59.68
-37.95
-15.30
6.22
25.28
41.21
53.78
62.90
68.59
71.04
70.72
68.43
65.07
61.41
57.89
54.58
51.25
47.66
43.68
39.41
35.10
31.07
27.54
24.61
22.18
19.94
17.41
14.10
9.64
3.97
-2.64
-9.61
-16.36
-22.52
-28.09
-33.49
-39.40
-46.49
-55.26
-65.67
-77.04
-87.89
-96.18
-99.71
-96.74
-86.58
-69.87
-48.43
-24.78
-1.42
19.73
37.51
51.53
61.82
68.59
72.20
73.06
71.77
68.99
65.43
61.62
57.88
54.24
50.53
46.61
42.38
37.99
33.66
29.72
26.40
23.74
21.61
19.66
17.47
14.64
10.94
6.37
1.13
-4.39
-9.83
-14.94
-19.69
-24.30
-29.20
-34.87
-41.77
-50.16
-59.87
-70.21
-79.87
-87.08
-89.96
-87.06
-77.83
-62.85
-43.73
-22.69
-1.93
16.86
32.70
45.27
54.61
60.92
64.41
65.35
64.16
61.43
57.84
54.01
50.34
46.99
43.91
40.97
38.02
35.05
32.10
29.28
26.68
24.37
22.34
20.40
18.28
15.62
12.14
7.74
2.58
-2.97
-8.50
-13.73
-18.63
-23.46
-28.62
-34.51
-41.41
-49.31
-57.90
-66.48
-73.96
-78.98
-80.13
-76.33
-67.22
-53.36
-36.16
-17.45
0.88
17.38
31.10
41.63
48.89
52.99
54.22
53.08
50.26
46.55
42.68
39.10
35.89
32.85
29.65
26.12
22.33
18.64
15.45
13.06
11.41
10.13
8.67
6.55
3.54
-0.28
-4.60
-9.04
-13.32
-17.34
-21.16
-25.01
-29.25
-34.30
-40.54
-48.08
-56.55
-64.95
-71.69
-75.04
-73.55
-66.60
-54.62
-38.95
-21.43
-3.93
12.16
25.96
37.11
45.49
51.07
53.90
54.13
52.18
48.75
44.69
40.76
37.37
34.51
31.81
28.87
25.48
21.78
18.18
15.09
12.68
10.83
9.11
7.00
4.09
0.23
-4.47
-9.66
-14.96
-20.11
-25.05
-29.95
-35.20
-41.27
-48.46
-56.79
-65.76
-74.29
-80.87
-83.87
-81.92
-74.41
-61.70
-45.06
-26.34
-7.46
10.02
25.11
37.33
46.58
52.90
56.44
57.51
56.58
54.29
51.26
47.94
44.55
41.03
37.27
33.23
29.04
24.97
21.37
18.46
16.21
14.40
12.56
10.20
6.90
2.50
-2.88
-8.89
-15.03
-20.88
-26.17
-30.99
-35.67
-40.81
-47.06
-54.89
-64.24
-74.27
-83.39
-89.49
-90.59
-85.45
-73.98
-57.32
-37.44
-16.59
3.30
20.92
35.65
47.30
55.93
61.66
64.72
65.44
64.28
61.82
58.58
54.93
51.08
47.10
43.05
39.07
35.38
32.14
29.44
27.17
25.11
23.03
20.80
18.39
15.82
13.08
10.05
6.55
2.41
-2.44
-7.88
-13.63
-19.38
-24.86
-30.00
-34.94
-40.04
-45.77
-52.57
-60.67
-69.85
-79.25
-87.42
-92.49
-92.68
-86.79
-74.68
-57.29
-36.46
-14.41
6.83
25.78
41.54
53.77
62.45
67.78
70.13
70.07
68.28
65.45
62.10
58.54
54.85
51.02
47.11
43.24
39.64
36.53
33.95
31.84
30.00
28.19
26.20
23.88
21.16
18.07
14.69
11.12
7.39
3.46
-0.86
-5.73
-11.24
-17.30
-23.62
-29.86
-35.73
-41.14
-46.25
-51.49
-57.42
-64.53
-72.87
-81.82
-89.96
-95.29
-95.78
-90.05
-77.85
-60.22
-39.17
-17.07
3.92
22.26
37.13
48.28
55.85
60.19
61.81
61.27
59.19
56.15
52.62
48.98
45.43
42.03
38.78
35.62
32.52
29.55
26.78
24.33
22.28
20.58
19.10
17.63
15.98
13.99
11.60
8.70
5.23
1.09
-3.71
-9.06
-14.68
-20.25
-25.46
-30.21
-34.65
-39.19
-44.38
-50.69
-58.20
-66.34
-73.87
-78.96
-79.78
-75.03
-64.42
-48.86
-30.18
-10.61
7.85
23.82
36.60
46.05
52.27
55.48
55.91
53.97
50.28
45.64
40.89
36.65
33.17
30.28
27.53
24.48
20.98
17.25
13.78
11.07
9.39
8.57
8.06
7.17
5.35
2.41
-1.44
-5.77
-10.10
-14.18
-18.01
-21.84
-25.99
-30.79
-36.52
-43.22
-50.72
-58.42
-65.33
-70.11
-71.42
-68.25
-60.36
-48.35
-33.58
-17.81
-2.71
10.46
21.05
28.91
34.18
37.17
38.20
37.62
35.82
33.19
30.07
26.68
23.14
19.54
15.97
12.64
9.72
7.31
5.24
3.17
0.67
-2.54
-6.51
-10.99
-15.60
-20.01
-24.05
-27.85
-31.69
-35.98
-41.14
-47.48
-55.06
-63.42
-71.50
-77.66
-80.03
-77.06
-68.14
-53.85
-35.85
-16.34
2.55
19.28
33.07
43.72
51.39
56.28
58.64
58.76
57.01
53.86
49.79
45.19
40.36
35.48
30.63
25.88
21.27
16.82
12.49
8.25
4.04
-0.20
-4.48
-8.81
-13.14
-17.47
-21.89
-26.64
-32.08
-38.69
-46.84
-56.58
-67.29
-77.60
-85.49
-88.71
-85.50
-75.22
-58.62
-37.71
-15.15
6.52
25.46
40.80
52.42
60.62
65.83
68.39
68.60
66.78
63.34
58.74
53.41
47.73
41.97
36.31
30.87
25.75
20.98
16.59
12.52
8.65
4.87
1.04
-2.85
-6.77
-10.72
-14.75
-19.12
-24.22
-30.54
-38.38
-47.63
-57.43
-66.19
-71.82
-72.25
-66.15
-53.42
-35.32
-14.11
7.64
27.73
44.75
58.15
67.94
74.37
77.74
78.32
76.46
72.62
67.34
61.14
54.43
47.45
40.28
32.91
25.28
17.41
9.34
1.25
-6.54
-13.73
-19.99
-25.17
-29.32
-32.66
-35.56
-38.41
-41.70
-45.89
-51.33
-58.02
-65.36
-72.05
-76.23
-76.01
-70.11
-58.36
-41.86
-22.65
-3.09
14.75
29.58
40.89
48.73
53.46
55.47
55.11
52.77
48.89
44.01
38.65
33.27
28.20
23.62
19.59
16.05
12.81
9.63
6.27
2.60
-1.33
-5.33
-9.16
-12.72
-16.15
-19.84
-24.36
-30.26
-37.86
-47.00
-56.84
-65.83
-71.92
-73.07
-67.86
-56.10
-38.96
-18.68
2.19
21.43
37.65
50.35
59.55
65.48
68.30
68.15
65.27
60.20
53.75
46.83
40.24
34.41
29.35
24.75
20.18
15.36
10.27
5.17
0.44
-3.57
-6.82
-9.54
-12.18
-15.27
-19.31
-24.71
-31.73
-40.34
-50.03
-59.65
-67.41
-71.23
-69.41
-61.18
-47.12
-28.98
-9.15
10.09
27.07
40.94
51.45
58.62
62.51
63.22
60.97
56.34
50.21
43.63
37.43
32.03
27.30
22.79
18.02
12.77
7.29
2.12
-2.20
-5.40
-7.68
-9.56
-11.70
-14.67
-18.85
-24.47
-31.60
-40.03
-49.07
-57.39
-63.16
-64.45
-59.89
-49.25
-33.58
-14.88
4.51
22.59
38.07
50.39
59.46
65.34
68.15
68.02
65.27
60.50
54.49
48.04
41.81
36.13
31.01
26.24
21.54
16.75
11.90
7.19
2.84
-1.00
-4.34
-7.35
-10.32
-13.57
-17.35
-21.92
-27.47
-34.19
-42.07
-50.67
-58.98
-65.37
-67.97
-65.20
-56.37
-42.02
-23.83
-4.12
14.82
31.28
44.34
53.77
59.75
62.65
62.91
61.03
57.64
53.36
48.71
43.98
39.26
34.49
29.62
24.78
20.19
16.14
12.82
10.16
7.85
5.48
2.71
-0.56
-4.17
-7.86
-11.39
-14.78
-18.29
-22.39
-27.58
-34.16
-42.05
-50.59
-58.54
-64.24
-65.97
-62.42
-53.18
-38.96
-21.44
-2.82
14.79
29.82
41.46
49.53
54.30
56.18
55.66
53.26
49.57
45.19
40.69
36.41
32.44
28.64
24.80
20.82
16.82
13.12
10.09
7.95
6.58
5.56
4.28
2.23
-0.83
-4.76
-9.17
-13.57
-17.61
-21.17
-24.47
-27.94
-32.19
-37.72
-44.73
-52.74
-60.48
-66.08
-67.56
-63.55
-53.82
-39.41
-22.28
-4.71
11.44
25.06
35.74
43.53
48.54
50.92
50.78
48.47
44.58
39.94
35.35
31.41
28.27
25.68
23.20
20.45
17.31
14.06
11.16
9.00
7.67
6.86
5.99
4.47
2.00
-1.37
-5.27
-9.25
-12.98
-16.37
-19.52
-22.69
-26.17
-30.23
-35.06
-40.73
-47.04
-53.40
-58.78
-61.82
-61.22
-56.12
-46.49
-33.21
-17.89
-2.36
11.75
23.36
32.00
37.65
40.57
41.09
39.58
36.48
32.33
27.72
23.16
18.99
15.32
12.09
9.15
6.44
4.00
1.94
0.33
-0.86
-1.83
-2.90
-4.32
-6.23
-8.54
-11.05
-13.55
-15.93
-18.25
-20.78
-23.85
-27.76
-32.65
-38.25
-43.88
-48.42
-50.57
-49.22
-43.80
-34.58
-22.57
-9.34
3.51
14.70
23.45
29.57
33.19
34.66
34.32
32.54
29.64
25.95
21.84
17.67
13.75
10.25
7.17
4.36
1.60
-1.28
-4.28
-7.30
-10.15
-12.71
-14.97
-17.08
-19.26
-21.72
-24.65
-28.22
-32.53
-37.62
-43.30
-49.03
-53.82
-56.40
-55.50
-50.32
-40.83
-27.90
-13.06
1.87
15.31
26.21
34.20
39.38
42.14
42.85
41.80
39.23
35.41
30.74
25.72
20.86
16.50
12.80
9.63
6.73
3.83
0.76
-2.47
-5.69
-8.75
-11.54
-14.12
-16.67
-19.44
-22.65
-26.48
-31.08
-36.60
-43.07
-50.27
-57.48
-63.41
-66.45
-65.13
-58.70
-47.48
-32.80
-16.56
-0.67
13.51
25.26
34.41
41.01
45.14
46.90
46.51
44.40
41.25
37.70
34.24
30.98
27.82
24.58
21.22
17.94
15.00
12.60
10.68
8.91
6.82
4.04
0.48
-3.65
-7.96
-12.12
-15.97
-19.61
-23.33
-27.53
-32.59
-38.83
-46.30
-54.57
-62.62
-68.90
-71.70
-69.62
-62.13
-49.79
-34.05
-16.87
-0.08
14.94
27.38
36.92
43.53
47.40
48.90
48.52
46.85
44.48
41.81
39.01
36.04
32.79
29.14
25.14
21.04
17.22
14.08
11.82
10.37
9.30
7.98
5.82
2.53
-1.76
-6.59
-11.37
-15.66
-19.41
-22.90
-26.71
-31.42
-37.51
-45.05
-53.60
-62.06
-68.84
-72.16
-70.54
-63.31
-50.87
-34.59
-16.42
1.65
18.04
31.78
42.45
50.05
54.78
56.92
56.86
55.04
51.97
48.15
44.02
39.92
36.04
32.39
28.87
25.39
21.92
18.59
15.66
13.41
11.91
10.95
10.05
8.59
6.08
2.36
-2.31
-7.42
-12.40
-16.90
-20.93
-24.81
-28.99
-33.96
-40.07
-47.47
-55.89
-64.61
-72.30
-77.24
-77.72
-72.56
-61.65
-46.02
-27.55
-8.45
9.36
24.60
36.70
45.56
51.39
54.48
55.24
54.12
51.63
48.30
44.59
40.85
37.28
33.98
30.90
27.98
25.18
22.50
20.08
18.05
16.52
15.41
14.47
13.27
11.39
8.48
4.50
-0.35
-5.60
-10.72
-15.30
-19.23
-22.73
-26.30
-30.51
-35.87
-42.63
-50.67
-59.32
-67.42
-73.35
-75.38
-72.17
-63.21
-49.11
-31.46
-12.42
6.00
22.31
35.73
46.02
53.21
57.42
58.84
57.80
54.89
50.89
46.56
42.47
38.87
35.69
32.68
29.57
26.30
22.97
19.93
17.50
15.87
14.93
14.25
13.27
11.49
8.62
4.77
0.26
-4.42
-8.89
-12.94
-16.62
-20.17
-23.98
-28.53
-34.20
-41.17
-49.12
-57.08
-63.50
-66.59
-64.83
-57.50
-45.04
-28.91
-11.20
5.99
21.05
33.09
41.87
47.50
50.31
50.72
49.20
46.33
42.67
38.69
34.67
30.66
26.59
22.46
18.34
14.44
11.03
8.27
6.14
4.47
2.96
1.29
-0.78
-3.35
-6.37
-9.72
-13.25
-16.81
-20.39
-24.10
-28.22
-33.14
-39.20
-46.35
-54.02
-60.97
-65.52
-66.05
-61.47
-51.71
-37.71
-21.14
-3.99
12.01
25.55
35.93
42.95
46.78
47.88
46.84
44.35
40.95
37.07
32.94
28.67
24.31
19.94
15.66
11.56
7.74
4.21
0.94
-2.17
-5.25
-8.38
-11.63
-14.98
-18.43
-21.92
-25.49
-29.26
-33.46
-38.43
-44.48
-51.68
-59.63
-67.22
-72.78
-74.45
-70.76
-61.21
-46.54
-28.53
-9.43
8.62
24.11
36.35
45.24
51.03
54.05
54.67
53.24
50.22
46.15
41.56
36.90
32.44
28.28
24.39
20.65
16.95
13.20
9.36
5.39
1.28
-2.94
-7.22
-11.49
-15.73
-19.96
-24.31
-29.02
-34.47
-41.06
-49.08
-58.49
-68.63
-78.11
-85.00
-87.25
-83.37
-72.89
-56.67
-36.60
-15.07
5.67
23.96
38.92
50.24
58.04
62.60
64.37
63.90
61.84
58.81
55.27
51.41
47.25
42.73
37.90
33.00
28.44
24.63
21.70
19.47
17.45
15.09
11.99
8.02
3.32
-1.82
-7.11
-12.38
-17.64
-23.08
-29.09
-36.17
-44.80
-55.13
-66.62
-77.87
-86.73
-90.86
-88.46
-78.93
-63.08
-42.89
-20.83
0.83
20.46
37.13
50.43
60.24
66.53
69.52
69.69
67.82
64.83
61.52
58.31
55.18
51.84
47.97
43.50
38.69
34.04
30.10
27.18
25.16
23.60
21.83
19.22
15.37
10.25
4.16
-2.40
-8.91
-15.02
-20.64
-25.98
-31.50
-37.81
-45.50
-54.86
-65.64
-76.81
-86.56
-92.64
-92.97
-86.30
-72.71
-53.64
-31.39
-8.50
12.92
31.50
46.62
58.14
66.18
70.93
72.68
71.88
69.13
65.18
60.74
56.40
52.47
49.02
45.87
42.78
39.52
36.07
32.61
29.47
26.94
25.07
23.66
22.18
20.07
16.89
12.48
7.06
1.05
-5.08
-11.01
-16.64
-22.14
-27.87
-34.25
-41.70
-50.49
-60.52
-71.16
-81.10
-88.44
-91.15
-87.61
-77.18
-60.52
-39.49
-16.61
5.59
25.18
41.08
52.99
61.09
65.78
67.47
66.65
63.91
59.95
55.55
51.32
47.62
44.49
41.70
38.90
35.83
32.43
28.90
25.63
23.00
21.20
20.06
19.10
17.66
15.16
11.33
6.24
0.29
-6.00
-12.17
-17.93
-23.30
-28.51
-34.03
-40.41
-48.13
-57.23
-67.14
-76.49
-83.33
-85.60
-81.72
-71.17
-54.70
-34.20
-12.10
9.20
27.87
42.92
54.03
61.32
65.14
65.87
64.04
60.32
55.54
50.52
45.91
41.93
38.45
35.08
31.48
27.54
23.55
20.01
17.37
15.80
14.98
14.21
12.68
9.77
5.25
-0.60
-7.20
-13.82
-19.92
-25.24
-29.93
-34.51
-39.74
-46.40
-54.95
-65.23
-76.23
-86.07
-92.43
-93.12
-86.85
-73.68
-55.01
-33.21
-10.89
9.79
27.50
41.68
52.30
59.50
63.47
64.39
62.69
59.08
54.49
49.81
45.65
42.11
38.90
35.53
31.67
27.34
22.97
19.17
16.49
15.04
14.42
13.85
12.47
9.62
5.12
-0.73
-7.34
-14.09
-20.55
-26.60
-32.43
-38.43
-45.17
-53.23
-63.02
-74.39
-86.34
-96.99
-103.82
-104.43
-97.37
-82.71
-62.11
-38.22
-13.91
8.56
27.92
43.74
56.08
65.05
70.70
73.09
72.50
69.55
65.13
60.15
55.32
51.01
47.19
43.64
40.09
36.42
32.67
29.06
25.86
23.24
21.21
19.50
17.66
15.14
11.54
6.72
0.92
-5.43
-11.79
-17.79
-23.37
-28.77
-34.44
-40.96
-48.85
-58.44
-69.53
-81.14
-91.47
-98.18
-98.96
-92.33
-78.26
-58.21
-34.74
-10.72
11.47
30.35
45.28
56.24
63.46
67.24
67.96
66.24
62.83
58.62
54.34
50.46
47.11
44.13
41.24
38.20
34.89
31.37
27.87
24.68
22.06
20.08
18.60
17.19
15.32
12.43
8.20
2.65
-3.84
-10.69
-17.36
-23.51
-29.13
-34.49
-40.05
-46.33
-53.79
-62.63
-72.50
-82.36
-90.39
-94.36
-92.29
-83.12
-67.22
-46.39
-23.25
-0.49
19.82
36.57
49.46
58.68
64.57
67.41
67.49
65.24
61.29
56.43
51.44
46.93
43.14
39.97
37.07
34.04
30.68
27.10
23.64
20.73
18.59
17.12
15.88
14.28
11.79
8.12
3.36
-2.16
-7.93
-13.57
-18.87
-23.88
-28.88
-34.24
-40.33
-47.45
-55.74
-65.06
-74.84
-83.90
-90.47
-92.52
-88.40
-77.43
-60.34
-39.13
-16.51
4.94
23.40
38.08
49.01
56.58
61.19
63.08
62.50
59.88
55.93
51.48
47.24
43.50
40.17
36.83
33.10
28.90
24.56
20.63
17.62
15.73
14.66
13.80
12.40
9.88
6.07
1.20
-4.23
-9.64
-14.65
-19.13
-23.26
-27.41
-32.01
-37.51
-44.24
-52.32
-61.50
-71.01
-79.40
-84.71
-84.98
-78.80
-66.00
-47.83
-26.66
-5.27
14.03
29.89
41.99
50.63
56.29
59.26
59.67
57.74
53.98
49.20
44.27
39.82
35.99
32.50
28.94
25.06
20.96
17.04
13.78
11.45
9.98
8.91
7.64
5.58
2.41
-1.80
-6.68
-11.71
-16.43
-20.67
-24.57
-28.59
-33.34
-39.38
-47.03
-56.20
-66.13
-75.43
-82.22
-84.55
-80.94
-70.94
-55.32
-35.87
-14.97
5.15
22.80
37.06
47.66
54.68
58.39
59.16
57.48
54.03
49.60
44.98
40.67
36.79
33.15
29.34
25.09
20.41
15.67
11.41
8.07
5.72
4.03
2.38
0.14
-3.01
-7.01
-11.48
-15.97
-20.15
-24.03
-27.94
-32.39
-37.93
-44.94
-53.43
-62.92
-72.27
-79.81
-83.61
-81.99
-74.07
-60.12
-41.57
-20.62
0.35
19.33
35.02
46.85
54.80
59.22
60.60
59.59
56.84
53.04
48.74
44.32
39.92
35.51
31.03
26.47
21.99
17.80
14.15
11.09
8.50
6.06
3.40
0.23
-3.59
-7.95
-12.59
-17.24
-21.74
-26.17
-30.92
-36.60
-43.79
-52.70
-62.76
-72.47
-79.69
-82.16
-78.24
-67.57
-51.18
-31.17
-10.08
9.77
26.83
40.31
50.03
56.19
59.17
59.48
57.72
54.56
50.60
46.29
41.85
37.30
32.62
27.81
23.06
18.66
14.91
11.95
9.66
7.65
5.44
2.63
-0.95
-5.15
-9.66
-14.14
-18.44
-22.65
-27.15
-32.46
-39.07
-47.20
-56.52
-65.99
-73.88
-78.13
-76.91
-69.25
-55.44
-37.03
-16.33
4.20
22.61
37.69
48.98
56.54
60.68
61.84
60.53
57.37
52.97
47.91
42.63
37.33
32.10
26.97
22.00
17.33
13.12
9.48
6.38
3.62
0.89
-2.10
-5.53
-9.39
-13.54
-17.78
-22.01
-26.33
-31.09
-36.80
-43.97
-52.76
-62.75
-72.69
-80.67
-84.48
-82.32
-73.37
-58.16
-38.46
-16.74
4.50
23.35
38.70
50.18
57.94
62.30
63.73
62.76
60.04
56.22
51.87
47.32
42.64
37.77
32.69
27.57
22.77
18.63
15.32
12.72
10.42
7.90
4.75
0.84
-3.74
-8.69
-13.75
-18.78
-23.80
-29.03
-34.84
-41.69
-49.96
-59.66
-70.09
-79.74
-86.43
-87.87
-82.48
-69.98
-51.57
-29.60
-6.81
14.47
32.72
47.27
58.00
65.03
68.59
69.07
67.04
63.34
58.84
54.24
49.88
45.71
41.49
36.99
32.21
27.42
23.06
19.54
16.94
15.00
13.15
10.70
7.21
2.58
-2.87
-8.60
-14.11
-19.21
-24.05
-29.12
-35.10
-42.59
-51.89
-62.64
-73.70
-83.15
-88.66
-88.12
-80.38
-65.66
-45.62
-22.79
0.15
21.01
38.49
52.04
61.66
67.53
69.94
69.33
66.35
61.85
56.71
51.64
46.96
42.64
38.41
33.99
29.36
24.80
20.81
17.84
16.01
15.03
14.23
12.83
10.25
6.30
1.26
-4.37
-10.09
-15.60
-20.89
-26.28
-32.28
-39.44
-48.13
-58.19
-68.72
-78.00
-83.81
-84.05
-77.45
-64.06
-45.32
-23.68
-1.81
18.03
34.39
46.72
55.02
59.68
61.15
60.00
56.84
52.36
47.23
41.97
36.91
32.10
27.53
23.18
19.16
15.67
12.90
10.87
9.38
8.03
6.32
3.88
0.53
-3.63
-8.33
-13.25
-18.18
-23.10
-28.33
-34.45
-42.11
-51.62
-62.55
-73.44
-81.94
-85.43
-81.89
-70.70
-52.94
-31.10
-8.23
12.95
30.71
44.41
54.13
60.33
63.37
63.55
61.22
56.88
51.19
44.84
38.38
32.15
26.36
21.13
16.61
12.92
10.04
7.77
5.66
3.26
0.15
-3.83
-8.57
-13.80
-19.23
-24.68
-30.22
-36.19
-43.11
-51.54
-61.71
-73.18
-84.61
-93.82
-98.34
-96.08
-86.10
-69.01
-46.76
-22.09
2.27
24.20
42.42
56.40
66.11
71.78
73.83
72.94
69.96
65.78
61.10
56.27
51.32
46.07
40.44
34.59
28.94
24.00
20.06
17.05
14.51
11.75
8.17
3.52
-2.10
-8.29
-14.59
-20.71
-26.63
-32.67
-39.37
-47.44
-57.42
-69.41
-82.60
-95.15
-104.38
-107.48
-102.45
-88.81
-67.91
-42.44
-15.62
9.73
31.72
49.45
62.72
71.63
76.48
77.77
76.25
72.93
68.85
64.79
61.05
57.44
53.49
48.81
43.34
37.51
32.06
27.67
24.67
22.81
21.30
19.18
15.67
10.49
3.90
-3.46
-10.91
-17.96
-24.56
-30.97
-37.74
-45.53
-54.92
-66.17
-78.87
-91.62
-102.13
-107.66
-105.81
-95.48
-77.30
-53.49
-27.19
-1.41
21.72
41.13
56.61
68.30
76.33
80.73
81.71
79.79
75.91
71.12
66.33
61.96
57.90
53.78
49.24
44.24
39.13
34.50
30.93
28.64
27.42
26.59
25.25
22.60
18.14
11.93
4.50
-3.29
-10.66
-17.08
-22.58
-27.59
-32.89
-39.31
-47.50
-57.77
-69.82
-82.59
-94.17
-102.06
-103.76
-97.50
-83.03
-61.78
-36.50
-10.43
13.65
34.03
50.17
62.27
70.79
76.08
78.31
77.69
74.69
70.12
64.92
59.86
55.35
51.36
47.56
43.66
39.61
35.62
32.12
29.44
27.64
26.44
25.27
23.52
20.70
16.66
11.50
5.57
-0.68
-6.87
-12.75
-18.29
-23.60
-28.96
-34.74
-41.43
-49.51
-59.25
-70.42
-81.94
-91.85
-97.63
-96.95
-88.49
-72.54
-51.02
-26.85
-3.03
18.21
35.73
49.33
59.28
65.82
69.09
69.25
66.73
62.38
57.23
52.19
47.70
43.73
39.88
35.81
31.42
27.00
23.09
20.15
18.36
17.45
16.79
15.64
13.33
9.57
4.51
-1.35
-7.37
-12.98
-17.97
-22.46
-26.95
-32.04
-38.33
-46.18
-55.52
-65.65
-75.17
-82.07
-84.25
-80.08
-69.04
-52.06
-31.23
-9.28
11.28
28.73
42.26
51.80
57.67
60.27
60.05
57.52
53.33
48.21
42.83
37.56
32.52
27.63
22.80
18.12
13.83
10.23
7.49
5.48
3.83
2.04
-0.38
-3.61
-7.60
-12.04
-16.60
-21.05
-25.42
-30.06
-35.54
-42.47
-51.17
-61.31
-71.69
-80.31
-84.81
-83.17
-74.43
-59.09
-38.99
-16.78
4.85
23.81
38.93
49.87
56.88
60.44
61.13
59.48
56.05
51.43
46.16
40.72
35.37
30.23
25.27
20.44
15.81
11.49
7.63
4.22
1.10
-2.07
-5.61
-9.68
-14.20
-18.93
-23.67
-28.43
-33.47
-39.31
-46.48
-55.33
-65.72
-76.83
-87.09
-94.34
-96.40
-91.59
-79.46
-60.99
-38.36
-14.35
8.47
28.26
44.15
55.96
63.94
68.42
69.80
68.56
65.33
60.80
55.60
50.16
44.65
39.11
33.57
28.16
23.14
18.75
15.10
12.04
9.23
6.20
2.58
-1.78
-6.74
-12.02
-17.34
-22.60
-28.01
-34.02
-41.20
-49.97
-60.30
-71.42
-81.77
-89.19
-91.46
-86.97
-75.30
-57.39
-35.36
-11.87
10.55
30.04
45.59
56.92
64.24
68.03
68.93
67.61
64.78
61.02
56.75
52.22
47.46
42.50
37.37
32.29
27.53
23.40
20.06
17.46
15.32
13.14
10.44
6.85
2.27
-3.12
-8.94
-14.76
-20.34
-25.72
-31.29
-37.67
-45.50
-55.00
-65.67
-76.08
-84.04
-87.23
-83.90
-73.49
-56.89
-36.16
-13.93
7.41
26.09
41.21
52.47
59.98
63.99
64.89
63.25
59.80
55.39
50.68
46.12
41.74
37.35
32.72
27.80
22.87
18.41
14.93
12.62
11.28
10.31
8.98
6.68
3.18
-1.32
-6.33
-11.28
-15.78
-19.77
-23.57
-27.76
-33.04
-39.98
-48.74
-58.74
-68.60
-76.29
-79.65
-76.98
-67.72
-52.64
-33.63
-13.16
6.46
23.53
37.10
46.92
53.12
56.05
56.19
54.13
50.50
45.93
40.94
35.87
30.90
26.11
21.51
17.19
13.27
9.92
7.26
5.25
3.69
2.18
0.31
-2.26
-5.62
-9.61
-13.88
-18.14
-22.30
-26.57
-31.49
-37.63
-45.38
-54.62
-64.47
-73.32
-79.11
-79.89
-74.35
-62.43
-45.31
-25.22
-4.72
13.92
29.23
40.62
48.20
52.48
54.04
53.45
51.19
47.75
43.52
38.83
33.90
28.90
23.98
19.35
15.27
11.91
9.21
6.92
4.58
1.74
-1.85
-6.22
-11.12
-16.22
-21.19
-25.88
-30.36
-34.91
-40.02
-46.30
-54.21
-63.79
-74.29
-84.15
-91.09
-92.82
-87.71
-75.46
-57.18
-35.16
-12.13
9.50
28.04
42.75
53.50
60.58
64.37
65.33
63.97
60.86
56.61
51.76
46.69
41.58
36.46
31.32
26.25
21.50
17.36
14.05
11.53
9.49
7.39
4.64
0.92
-3.77
-9.07
-14.48
-19.57
-24.30
-29.03
-34.51
-41.53
-50.56
-61.39
-72.80
-82.75
-88.79
-88.78
-81.60
-67.54
-48.24
-26.12
-3.71
16.95
34.59
48.63
58.92
65.52
68.64
68.67
66.31
62.42
57.88
53.34
49.07
44.98
40.81
36.36
31.65
27.00
22.87
19.62
17.33
15.72
14.16
11.96
8.62
3.98
-1.65
-7.74
-13.71
-19.19
-24.18
-29.03
-34.36
-40.81
-48.87
-58.57
-69.26
-79.54
-87.38
-90.60
-87.49
-77.39
-61.03
-40.30
-17.77
4.12
23.48
39.35
51.43
59.83
64.82
66.69
65.82
62.83
58.51
53.74
49.18
45.12
41.46
37.86
34.02
29.94
25.89
22.35
19.67
17.89
16.66
15.33
13.27
10.07
5.68
0.41
-5.27
-10.87
-16.12
-20.99
-25.76
-30.93
-37.12
-44.79
-54.03
-64.22
-73.94
-81.16
-83.70
-79.95
-69.47
-53.18
-33.13
-11.86
8.37
25.97
40.15
50.72
57.75
61.48
62.20
60.44
56.95
52.58
48.06
43.79
39.75
35.71
31.38
26.76
22.16
18.14
15.16
13.37
12.43
11.65
10.24
7.64
3.72
-1.23
-6.67
-12.06
-17.09
-21.70
-26.15
-30.85
-36.36
-43.12
-51.30
-60.54
-69.74
-77.12
-80.63
-78.49
-69.85
-55.18
-36.15
-15.19
5.24
23.23
37.70
48.36
55.40
59.24
60.26
58.92
55.79
51.51
46.76
42.04
37.59
33.36
29.15
24.83
20.49
16.49
13.22
10.93
9.47
8.29
6.67
3.97
-0.06
-5.19
-10.86
-16.45
-21.51
-26.00
-30.31
-35.13
-41.25
-49.18
-58.82
-69.21
-78.60
-84.75
-85.58
-79.79
-67.34
-49.47
-28.32
-6.41
14.00
31.32
44.69
53.96
59.44
61.72
61.49
59.49
56.35
52.58
48.51
44.26
39.83
35.16
30.30
25.44
20.90
17.00
13.90
11.47
9.35
7.05
4.20
0.65
-3.48
-7.89
-12.26
-16.38
-20.26
-24.19
-28.64
-34.19
-41.30
-49.93
-59.37
-68.07
-73.97
-75.04
-69.93
-58.54
-42.10
-22.78
-3.03
15.03
30.07
41.48
49.24
53.61
55.00
53.94
51.07
47.14
42.80
38.47
34.30
30.21
26.08
21.94
18.02
14.60
11.88
9.77
7.89
5.73
2.86
-0.86
-5.29
-10.04
-14.71
-19.04
-23.01
-26.85
-31.05
-36.20
-42.78
-50.94
-60.06
-68.77
-75.03
-76.75
-72.46
-61.86
-45.97
-26.85
-6.97
11.47
26.97
38.83
46.99
51.79
53.75
53.41
51.35
48.10
44.11
39.70
35.04
30.24
25.42
20.76
16.48
12.77
9.69
7.14
4.82
2.36
-0.57
-4.11
-8.24
-12.72
-17.28
-21.71
-25.99
-30.37
-35.26
-41.21
-48.63
-57.53
-67.24
-76.35
-82.83
-84.57
-80.03
-68.79
-51.81
-31.19
-9.53
10.80
28.17
41.86
51.80
58.29
61.68
62.34
60.68
57.29
52.83
47.97
43.09
38.34
33.65
28.97
24.39
20.15
16.50
13.49
10.92
8.38
5.45
1.84
-2.44
-7.20
-12.18
-17.13
-21.95
-26.75
-31.84
-37.70
-44.84
-53.52
-63.34
-73.07
-80.72
-84.03
-81.20
-71.53
-55.76
-35.85
-14.29
6.50
24.85
39.82
51.17
58.98
63.47
64.96
63.93
61.03
57.01
52.50
47.88
43.25
38.54
33.71
28.89
24.39
20.61
17.77
15.81
14.34
12.77
10.51
7.17
2.76
-2.44
-7.89
-13.12
-17.86
-22.21
-26.64
-31.87
-38.67
-47.44
-57.95
-68.99
-78.57
-84.28
-84.01
-76.67
-62.61
-43.52
-21.86
-0.19
19.50
35.97
48.63
57.34
62.22
63.61
62.15
58.74
54.36
49.83
45.58
41.62
37.64
33.32
28.57
23.69
19.22
15.71
13.44
12.22
11.42
10.25
8.05
4.56
0.00
-5.15
-10.41
-15.53
-20.63
-26.11
-32.51
-40.29
-49.68
-60.36
-71.41
-81.16
-87.49
-88.35
-82.42
-69.65
-51.33
-29.79
-7.63
12.93
30.48
44.46
54.80
61.69
65.36
66.11
64.40
60.91
56.49
51.83
47.38
43.22
39.19
35.11
30.92
26.84
23.23
20.43
18.51
17.18
15.82
13.71
10.32
5.51
-0.42
-6.86
-13.21
-19.06
-24.41
-29.67
-35.50
-42.60
-51.47
-62.02
-73.42
-84.00
-91.50
-93.67
-88.94
-77.05
-59.14
-37.44
-14.57
7.18
26.30
42.07
54.27
62.93
68.08
69.89
68.73
65.33
60.62
55.54
50.75
46.53
42.79
39.19
35.52
31.75
28.15
25.12
22.93
21.57
20.59
19.31
17.03
13.35
8.33
2.44
-3.65
-9.40
-14.55
-19.32
-24.24
-29.99
-37.19
-46.12
-56.55
-67.57
-77.54
-84.40
-86.10
-81.26
-69.65
-52.32
-31.38
-9.34
11.51
29.54
43.91
54.37
61.03
64.18
64.30
62.05
58.26
53.80
49.32
45.19
41.35
37.58
33.67
29.55
25.45
21.72
18.70
16.51
14.97
13.62
11.86
9.22
5.40
0.51
-5.10
-10.93
-16.56
-21.84
-26.92
-32.29
-38.57
-46.28
-55.49
-65.56
-75.02
-81.80
-83.77
-79.44
-68.47
-51.87
-31.69
-10.38
9.82
27.30
41.21
51.27
57.56
60.39
60.22
57.70
53.60
48.65
43.42
38.23
33.19
28.33
23.73
19.55
15.96
13.02
10.58
8.29
5.74
2.64
-1.12
-5.40
-9.93
-14.49
-19.02
-23.66
-28.78
-34.86
-42.37
-51.59
-62.30
-73.60
-83.80
-90.67
-92.01
-86.31
-73.37
-54.45
-31.95
-8.70
12.77
30.77
44.60
54.32
60.40
63.46
64.09
62.77
59.97
56.07
51.39
46.20
40.68
35.05
29.57
24.51
20.12
16.51
13.59
11.06
8.47
5.42
1.61
-3.02
-8.33
-14.10
-20.09
-26.18
-32.37
-38.89
-46.17
-54.68
-64.67
-75.74
-86.55
-94.84
-98.01
-94.00
-82.07
-63.23
-39.88
-15.09
8.45
28.92
45.50
58.09
66.79
71.84
73.51
72.33
69.10
64.81
60.30
56.05
52.07
48.08
43.76
39.04
34.21
29.78
26.24
23.82
22.26
20.89
18.90
15.56
10.53
3.99
-3.51
-11.25
-18.59
-25.24
-31.33
-37.35
-44.04
-52.15
-62.04
-73.38
-84.87
-94.37
-99.33
-97.57
-88.03
-71.25
-49.17
-24.59
-0.30
21.61
40.01
54.56
65.36
72.64
76.63
77.63
76.11
72.76
68.38
63.66
59.07
54.78
50.77
46.87
43.00
39.21
35.66
32.61
30.19
28.38
26.91
25.29
22.93
19.32
14.24
7.85
0.69
-6.55
-13.28
-19.26
-24.64
-29.87
-35.51
-42.04
-49.83
-58.99
-69.27
-79.87
-89.20
-95.15
-95.51
-88.78
-74.85
-55.14
-32.24
-9.04
12.11
29.88
43.86
54.19
61.11
64.79
65.40
63.36
59.39
54.46
49.46
44.97
41.14
37.80
34.66
31.54
28.47
25.66
23.36
21.74
20.70
19.94
18.91
17.08
14.03
9.65
4.12
-2.09
-8.41
-14.35
-19.71
-24.64
-29.58
-35.17
-42.01
-50.48
-60.47
-71.19
-81.18
-88.43
-90.87
-86.97
-76.26
-59.62
-39.10
-17.26
3.48
21.42
35.76
46.42
53.63
57.69
58.86
57.52
54.25
49.84
45.08
40.53
36.34
32.35
28.30
24.10
19.98
16.40
13.79
12.32
11.67
11.13
9.81
7.02
2.54
-3.30
-9.83
-16.28
-22.15
-27.38
-32.36
-37.78
-44.40
-52.84
-63.21
-74.91
-86.48
-95.74
-100.21
-97.90
-87.97
-71.08
-49.31
-25.42
-2.15
18.50
35.43
48.34
57.39
62.92
65.42
65.44
63.69
60.87
57.50
53.80
49.71
45.07
39.76
33.96
28.08
22.72
18.38
15.21
12.96
11.03
8.64
5.18
0.43
-5.46
-11.98
-18.58
-24.86
-30.82
-36.73
-43.21
-50.89
-60.24
-71.21
-82.92
-93.59
-100.82
-102.17
-96.00
-82.09
-61.81
-37.70
-12.77
10.43
30.19
45.85
57.45
65.35
70.01
71.86
71.40
69.22
65.95
62.14
58.10
53.88
49.31
44.25
38.75
33.20
28.16
24.20
21.54
19.87
18.47
16.43
13.05
8.16
2.13
-4.41
-10.82
-16.79
-22.47
-28.32
-35.03
-43.23
-53.31
-65.16
-77.88
-89.69
-98.11
-100.66
-95.58
-82.61
-63.11
-39.69
-15.27
7.69
27.69
44.13
56.90
66.01
71.46
73.34
72.14
68.76
64.32
59.79
55.67
51.92
48.12
43.89
39.12
34.14
29.53
25.82
23.27
21.69
20.48
18.88
16.19
12.02
6.42
-0.19
-7.15
-13.84
-19.90
-25.41
-30.82
-36.88
-44.37
-53.74
-64.83
-76.67
-87.48
-95.01
-97.06
-92.20
-80.20
-62.15
-40.11
-16.62
5.98
25.89
42.04
53.93
61.55
65.20
65.51
63.34
59.69
55.46
51.28
47.43
43.77
40.04
35.99
31.60
27.13
23.00
19.62
17.14
15.37
13.75
11.61
8.36
3.79
-1.91
-8.19
-14.38
-19.98
-24.89
-29.48
-34.50
-40.83
-49.14
-59.57
-71.43
-83.06
-92.13
-96.14
-93.14
-82.48
-65.00
-42.85
-18.81
4.50
25.17
42.19
55.20
64.28
69.64
71.63
70.78
67.80
63.52
58.68
53.80
49.17
44.79
40.58
36.43
32.31
28.34
24.72
21.72
19.43
17.61
15.72
12.99
8.79
2.88
-4.41
-12.33
-20.02
-26.89
-32.81
-38.14
-43.62
-50.08
-58.27
-68.57
-80.57
-92.95
-103.47
-109.41
-108.35
-99.05
-81.89
-58.88
-32.93
-7.05
16.45
36.27
51.99
63.68
71.62
76.07
77.40
76.12
72.90
68.54
63.77
59.10
54.76
50.69
46.74
42.74
38.71
34.82
31.38
28.66
26.69
25.22
23.65
21.33
17.66
12.42
5.80
-1.67
-9.33
-16.67
-23.46
-29.86
-36.26
-43.18
-51.15
-60.59
-71.53
-83.46
-95.02
-104.13
-108.33
-105.51
-94.73
-76.59
-53.23
-27.57
-2.50
19.88
38.51
53.18
64.09
71.53
75.74
76.97
75.62
72.29
67.75
62.70
57.74
53.21
49.24
45.78
42.68
39.83
37.15
34.68
32.50
30.65
29.04
27.36
25.11
21.78
17.05
10.94
3.88
-3.51
-10.60
-17.13
-23.18
-29.10
-35.35
-42.29
-50.17
-59.16
-69.25
-80.04
-90.47
-98.69
-102.44
-99.71
-89.52
-72.42
-50.37
-26.15
-2.51
18.58
36.09
49.83
59.94
66.67
70.14
70.52
68.18
63.81
58.39
52.95
48.26
44.63
41.80
39.18
36.21
32.67
28.85
25.38
22.85
21.51
20.98
20.43
18.88
15.64
10.57
4.10
-2.97
-9.83
-15.98
-21.32
-26.15
-31.00
-36.46
-43.05
-51.13
-60.72
-71.21
-81.27
-88.87
-91.71
-87.94
-76.91
-59.45
-37.72
-14.51
7.58
26.75
42.15
53.64
61.43
65.79
67.01
65.51
61.93
57.14
52.03
47.32
43.31
39.84
36.51
32.91
28.83
24.49
20.38
16.99
14.60
12.98
11.45
9.14
5.37
-0.07
-6.81
-14.04
-20.90
-26.81
-31.74
-36.15
-40.87
-46.79
-54.63
-64.61
-76.24
-88.25
-98.56
-104.72
-104.52
-96.66
-81.29
-60.06
-35.61
-10.82
11.93
31.19
46.46
57.76
65.34
69.47
70.45
68.81
65.34
61.01
56.69
52.86
49.52
46.25
42.53
38.07
33.01
27.85
23.30
19.91
17.83
16.68
15.64
13.80
10.45
5.36
-1.18
-8.49
-15.83
-22.62
-28.72
-34.32
-39.95
-46.34
-54.12
-63.63
-74.58
-85.77
-95.14
-100.19
-98.71
-89.63
-73.42
-52.03
-28.28
-4.95
15.94
33.33
46.98
56.97
63.46
66.54
66.44
63.76
59.39
54.42
49.72
45.69
42.16
38.65
34.68
30.11
25.24
20.73
17.25
15.12
14.09
13.40
12.09
9.33
4.82
-1.16
-7.84
-14.41
-20.27
-25.35
-30.05
-35.12
-41.31
-49.19
-58.84
-69.78
-80.78
-90.01
-95.25
-94.54
-86.71
-71.87
-51.56
-28.28
-4.86
16.34
33.85
47.13
56.29
61.77
64.05
63.65
61.14
57.22
52.57
47.75
43.04
38.41
33.72
28.94
24.25
20.02
16.69
14.43
13.02
11.86
10.16
7.29
3.02
-2.40
-8.36
-14.18
-19.42
-24.10
-28.74
-34.17
-41.26
-50.40
-61.12
-72.02
-80.94
-85.50
-83.81
-75.11
-60.05
-40.48
-18.95
2.07
20.69
35.83
47.12
54.67
58.80
59.90
58.43
54.95
50.05
44.34
38.32
32.34
26.60
21.22
16.25
11.76
7.80
4.33
1.21
-1.80
-4.98
-8.55
-12.58
-16.97
-21.52
-26.07
-30.73
-35.86
-42.09
-50.04
-59.89
-71.08
-82.14
-90.90
-95.00
-92.60
-82.95
-66.64
-45.49
-21.97
1.34
22.35
39.70
52.76
61.52
66.35
67.83
66.65
63.46
58.93
53.54
47.73
41.80
35.99
30.45
25.29
20.53
16.14
12.02
8.03
4.03
-0.07
-4.35
-8.83
-13.56
-18.54
-23.81
-29.43
-35.64
-42.87
-51.65
-62.28
-74.43
-86.77
-97.02
-102.51
-100.95
-91.28
-74.08
-51.40
-26.11
-1.07
21.51
40.30
54.79
64.98
71.19
73.90
73.78
71.53
67.86
63.37
58.45
53.29
47.99
42.67
37.47
32.67
28.51
25.11
22.34
19.80
16.92
13.18
8.33
2.46
-4.00
-10.55
-16.82
-22.82
-28.98
-35.99
-44.59
-55.19
-67.51
-80.35
-91.63
-98.81
-99.55
-92.49
-77.74
-56.87
-32.43
-7.22
16.39
36.90
53.51
66.01
74.46
79.10
80.38
78.95
75.62
71.17
66.25
61.23
56.21
51.13
45.96
40.78
35.87
31.65
28.45
26.31
24.81
23.17
20.54
16.37
10.60
3.76
-3.40
-10.28
-16.62
-22.71
-29.16
-36.65
-45.74
-56.53
-68.53
-80.44
-90.34
-95.90
-95.11
-86.88
-71.49
-50.58
-26.63
-2.32
20.18
39.46
54.87
66.19
73.45
76.79
76.52
73.28
68.03
61.94
56.07
51.10
47.15
43.86
40.71
37.33
33.71
30.20
27.28
25.23
23.89
22.70
20.89
17.80
13.14
7.02
-0.08
-7.57
-14.95
-21.94
-28.63
-35.37
-42.75
-51.36
-61.63
-73.41
-85.76
-96.93
-104.54
-106.26
-100.46
-86.86
-66.68
-42.33
-16.68
7.65
28.88
46.19
59.46
68.96
74.98
77.78
77.65
75.06
70.71
65.49
60.23
55.52
51.55
48.16
44.96
41.65
38.15
34.72
31.71
29.38
27.59
25.86
23.43
19.66
14.28
7.57
0.19
-7.09
-13.75
-19.68
-25.20
-30.86
-37.24
-44.79
-53.76
-64.17
-75.60
-87.07
-96.91
-102.95
-103.06
-95.87
-81.29
-60.80
-36.89
-12.41
10.25
29.65
45.25
57.17
65.71
71.13
73.63
73.49
71.17
67.35
62.78
58.13
53.84
50.03
46.58
43.20
39.73
36.16
32.71
29.77
27.61
26.23
25.24
23.97
21.69
17.96
12.77
6.52
-0.15
-6.66
-12.66
-18.16
-23.39
-28.72
-34.52
-41.14
-48.88
-57.84
-67.73
-77.61
-85.85
-90.39
-89.30
-81.49
-67.22
-48.07
-26.48
-5.00
14.42
30.66
43.40
52.70
58.72
61.61
61.60
59.13
54.99
50.05
45.16
40.82
37.22
34.16
31.35
28.59
25.84
23.28
21.16
19.62
18.59
17.65
16.22
13.76
9.94
4.86
-1.06
-7.18
-12.94
-18.04
-22.52
-26.73
-31.18
-36.38
-42.76
-50.45
-59.15
-67.98
-75.41
-79.61
-78.81
-71.95
-59.09
-41.52
-21.40
-1.18
17.07
32.03
43.20
50.64
54.67
55.69
54.18
50.74
46.13
41.12
36.36
32.14
28.37
24.74
20.99
17.10
13.38
10.27
8.13
6.92
6.23
5.32
3.47
0.23
-4.36
-9.89
-15.74
-21.38
-26.56
-31.40
-36.27
-41.72
-48.25
-56.20
-65.59
-75.81
-85.60
-93.05
-96.07
-92.91
-82.90
-66.69
-46.19
-23.96
-2.50
16.38
31.74
43.41
51.65
56.82
59.27
59.38
57.65
54.71
51.21
47.62
44.12
40.59
36.75
32.45
27.83
23.39
19.71
17.14
15.57
14.38
12.74
9.93
5.71
0.36
-5.47
-11.12
-16.20
-20.77
-25.21
-30.05
-35.86
-43.03
-51.64
-61.39
-71.34
-79.93
-85.23
-85.36
-79.15
-66.61
-48.98
-28.47
-7.54
11.68
27.87
40.56
49.83
56.02
59.46
60.43
59.20
56.19
52.06
47.46
43.02
39.00
35.38
31.85
28.18
24.33
20.56
17.34
14.97
13.44
12.27
10.77
8.27
4.53
-0.27
-5.56
-10.73
-15.40
-19.61
-23.76
-28.43
-34.17
-41.34
-49.89
-59.30
-68.40
-75.53
-78.79
-76.56
-68.09
-53.86
-35.51
-15.41
4.04
20.98
34.38
43.97
49.94
52.73
52.82
50.75
47.18
42.73
37.97
33.26
28.69
24.20
19.73
15.41
11.54
8.50
6.52
5.50
4.99
4.28
2.76
0.09
-3.67
-8.12
-12.79
-17.32
-21.63
-25.95
-30.75
-36.54
-43.73
-52.33
-61.75
-70.65
-77.11
-79.15
-75.25
-65.01
-49.29
-30.00
-9.51
9.96
26.80
40.12
49.64
55.46
57.93
57.56
55.04
51.12
46.49
41.69
36.94
32.29
27.68
23.11
18.70
14.66
11.19
8.33
5.93
3.68
1.18
-1.84
-5.48
-9.60
-13.96
-18.36
-22.73
-27.25
-32.29
-38.33
-45.80
-54.85
-65.11
-75.51
-84.28
-89.30
-88.62
-81.17
-67.10
-47.94
-26.09
-4.15
15.74
32.28
45.04
54.19
60.11
63.21
63.84
62.37
59.25
54.99
50.11
45.06
40.09
35.33
30.86
26.73
23.01
19.73
16.85
14.20
11.52
8.58
5.19
1.32
-2.94
-7.47
-12.17
-17.01
-22.17
-28.02
-35.02
-43.54
-53.53
-64.16
-73.76
-80.11
-81.03
-75.22
-62.70
-44.89
-24.16
-3.02
16.44
32.92
45.84
55.12
60.92
63.52
63.37
61.08
57.34
52.80
47.90
42.83
37.67
32.52
27.59
23.18
19.53
16.63
14.22
11.86
9.12
5.78
1.93
-2.19
-6.32
-10.38
-14.50
-18.99
-24.24
-30.56
-38.18
-47.01
-56.50
-65.45
-72.14
-74.61
-71.32
-61.69
-46.50
-27.64
-7.62
11.21
27.23
39.74
48.76
54.61
57.60
57.91
55.71
51.33
45.40
38.72
32.13
26.24
21.31
17.26
13.76
10.49
7.22
3.93
0.72
-2.32
-5.21
-8.10
-11.22
-14.74
-18.73
-23.22
-28.30
-34.29
-41.58
-50.30
-59.99
-69.30
-76.17
-78.43
-74.53
-64.16
-48.41
-29.42
-9.64
8.79
24.51
36.99
46.23
52.44
55.84
56.55
54.75
50.81
45.35
39.16
32.98
27.33
22.39
18.05
14.05
10.14
6.21
2.27
-1.60
-5.35
-8.99
-12.56
-16.18
-20.01
-24.33
-29.47
-35.89
-43.92
-53.63
-64.45
-75.08
-83.53
-87.58
-85.37
-76.14
-60.53
-40.44
-18.45
2.91
21.82
37.36
49.35
57.92
63.33
65.79
65.57
63.16
59.20
54.37
49.27
44.20
39.27
34.45
29.72
25.08
20.63
16.36
12.27
8.26
4.30
0.37
-3.46
-7.25
-11.18
-15.59
-20.95
-27.72
-36.13
-46.09
-56.93
-67.40
-75.70
-79.86
-78.23
-70.01
-55.58
-36.48
-15.02
6.32
25.50
41.25
53.11
61.20
65.97
67.97
67.68
65.61
62.26
58.10
53.54
48.86
44.20
39.55
34.92
30.41
26.18
22.46
19.34
16.65
14.07
11.13
7.49
3.03
-2.14
-7.75
-13.53
-19.32
-25.19
-31.47
-38.67
-47.23
-57.10
-67.41
-76.41
-81.81
-81.49
-74.28
-60.48
-41.80
-20.80
-0.04
18.54
33.87
45.64
53.97
59.05
61.12
60.48
57.62
53.17
47.83
42.21
36.73
31.60
26.94
22.83
19.36
16.56
14.34
12.49
10.65
8.52
5.89
2.78
-0.68
-4.35
-8.22
-12.44
-17.36
-23.40
-30.90
-39.93
-50.01
-60.05
-68.35
-72.91
-72.00
-64.75
-51.48
-33.72
-13.76
6.00
23.67
38.14
49.01
56.36
60.47
61.73
60.54
57.38
52.76
47.18
41.11
34.94
29.00
23.58
18.92
15.09
12.00
9.36
6.82
4.05
0.88
-2.70
-6.60
-10.72
-14.98
-19.41
-24.13
-29.37
-35.45
-42.78
-51.66
-61.93
-72.66
-82.12
-88.02
-88.19
-81.34
-67.60
-48.50
-26.49
-4.19
16.28
33.62
47.28
57.23
63.64
66.81
67.11
65.10
61.46
56.92
52.06
47.22
42.50
37.86
33.28
28.90
24.97
21.70
19.13
16.97
14.69
11.76
7.88
3.15
-2.04
-7.20
-12.04
-16.65
-21.46
-27.12
-34.27
-43.24
-53.84
-65.18
-75.66
-83.20
-85.76
-81.86
-71.15
-54.52
-33.93
-11.85
9.43
28.19
43.48
55.00
62.85
67.31
68.81
67.88
65.14
61.30
56.92
52.43
47.95
43.43
38.78
34.02
29.36
25.21
21.91
19.61
18.09
16.78
14.96
12.07
7.92
2.77
-2.80
-8.19
-13.10
-17.59
-22.17
-27.54
-34.36
-42.94
-53.02
-63.58
-72.96
-79.12
-80.21
-75.07
-63.68
-47.18
-27.60
-7.20
12.00
28.58
41.81
51.47
57.60
60.45
60.41
58.06
54.12
49.31
44.27
39.38
34.82
30.60
26.70
23.15
20.03
17.40
15.25
13.40
11.56
9.40
6.67
3.27
-0.72
-5.06
-9.54
-13.98
-18.43
-23.09
-28.38
-34.75
-42.49
-51.48
-60.88
-69.17
-74.33
-74.50
-68.53
-56.50
-39.68
-20.19
-0.33
17.95
33.34
45.18
53.29
57.75
58.90
57.30
53.68
48.90
43.67
38.48
33.47
28.62
23.79
19.04
14.56
10.64
7.51
5.19
3.35
1.54
-0.77
-3.82
-7.61
-11.82
-16.13
-20.31
-24.36
-28.55
-33.32
-39.17
-46.46
-55.27
-65.13
-74.88
-82.70
-86.53
-84.61
-76.13
-61.57
-42.60
-21.60
-0.98
17.41
32.51
44.02
52.07
56.98
59.11
58.87
56.73
53.25
49.03
44.53
40.05
35.71
31.54
27.57
23.90
20.68
18.02
15.85
13.91
11.80
9.13
5.69
1.47
-3.25
-8.12
-12.82
-17.24
-21.58
-26.32
-32.10
-39.47
-48.55
-58.69
-68.41
-75.63
-78.22
-74.67
-64.64
-49.11
-30.07
-9.91
9.24
25.85
39.14
48.87
55.11
58.08
58.19
56.03
52.36
47.97
43.48
39.19
35.15
31.22
27.30
23.45
19.89
16.86
14.48
12.66
11.06
9.27
6.89
3.75
-0.09
-4.34
-8.64
-12.77
-16.72
-20.80
-25.50
-31.41
-38.91
-47.93
-57.67
-66.66
-72.88
-74.32
-69.62
-58.58
-42.32
-23.01
-3.22
14.81
29.61
40.62
47.91
51.91
53.16
52.19
49.59
45.94
41.79
37.54
33.39
29.32
25.22
21.08
17.07
13.43
10.43
8.12
6.27
4.39
1.97
-1.34
-5.53
-10.30
-15.20
-19.87
-24.21
-28.49
-33.21
-38.98
-46.24
-55.04
-64.80
-74.17
-81.25
-84.01
-80.85
-71.25
-55.93
-36.71
-15.95
4.08
21.71
35.99
46.58
53.53
57.14
57.83
56.20
52.97
48.90
44.58
40.40
36.42
32.54
28.59
24.56
20.58
16.93
13.89
11.60
9.92
8.43
6.57
3.84
-0.01
-4.87
-10.29
-15.65
-20.53
-24.81
-28.88
-33.49
-39.48
-47.40
-57.10
-67.51
-76.76
-82.53
-82.76
-76.29
-63.29
-45.25
-24.51
-3.59
15.49
31.49
43.91
52.73
58.13
60.36
59.77
56.94
52.69
47.87
43.16
38.91
35.05
31.32
27.48
23.53
19.76
16.60
14.32
12.89
11.91
10.71
8.69
5.50
1.21
-3.83
-9.14
-14.36
-19.37
-24.33
-29.54
-35.39
-42.24
-50.31
-59.52
-69.24
-78.20
-84.53
-86.27
-81.91
-71.02
-54.55
-34.51
-13.41
6.52
23.82
37.84
48.55
56.04
60.42
61.77
60.41
56.99
52.49
47.89
43.82
40.39
37.22
33.77
29.74
25.31
21.07
17.74
15.71
14.82
14.37
13.42
11.15
7.21
1.82
-4.48
-11.01
-17.31
-23.23
-28.93
-34.72
-41.02
-48.22
-56.57
-65.98
-75.80
-84.62
-90.51
-91.44
-85.96
-73.79
-55.98
-34.67
-12.37
8.66
26.90
41.59
52.57
59.93
63.89
64.79
63.14
59.71
55.35
50.90
46.86
43.37
40.19
36.94
33.37
29.54
25.84
22.77
20.69
19.58
18.95
18.05
16.15
12.83
8.15
2.56
-3.32
-8.95
-14.09
-18.82
-23.52
-28.70
-34.93
-42.60
-51.75
-61.86
-71.70
-79.45
-83.07
-80.87
-72.12
-57.40
-38.52
-17.97
1.79
18.91
32.49
42.41
49.01
52.75
54.04
53.27
50.85
47.26
43.02
38.55
34.11
29.82
25.75
22.02
18.75
16.08
14.00
12.33
10.75
8.84
6.26
2.83
-1.37
-6.12
-11.08
-15.99
-20.81
-25.74
-31.23
-37.79
-45.75
-54.94
-64.45
-72.65
-77.52
-77.14
-70.44
-57.55
-39.90
-19.75
0.46
18.75
33.91
45.47
53.42
57.99
59.51
58.49
55.63
51.72
47.42
43.11
38.80
34.30
29.53
24.60
19.90
15.83
12.59
10.04
7.74
5.19
2.03
-1.82
-6.17
-10.75
-15.31
-19.80
-24.33
-29.20
-34.87
-41.82
-50.42
-60.64
-71.72
-82.08
-89.51
-91.76
-87.26
-75.76
-58.41
-37.47
-15.56
5.09
23.02
37.63
48.83
56.77
61.64
63.66
63.22
60.87
57.28
53.08
48.68
44.21
39.63
34.91
30.14
25.60
21.66
18.58
16.31
14.43
12.32
9.39
5.37
0.38
-5.17
-10.80
-16.19
-21.39
-26.81
-33.05
-40.74
-50.16
-60.97
-72.01
-81.42
-86.98
-86.79
-79.77
-66.17
-47.41
-25.75
-3.62
16.91
34.50
48.47
58.69
65.36
68.82
69.59
68.24
65.39
61.61
57.34
52.80
48.08
43.25
38.39
33.71
29.53
26.09
23.50
21.58
19.92
17.94
15.11
11.10
5.94
0.03
-6.05
-11.80
-17.02
-21.97
-27.27
-33.70
-41.88
-51.89
-63.03
-73.80
-82.09
-85.73
-83.09
-73.62
-58.09
-38.37
-16.87
4.08
22.75
38.17
49.98
58.16
62.89
64.52
63.57
60.77
56.95
52.79
48.68
44.68
40.63
36.37
31.91
27.51
23.55
20.37
18.09
16.51
15.18
13.53
11.12
7.74
3.47
-1.41
-6.57
-11.79
-17.06
-22.62
-28.88
-36.25
-45.02
-54.99
-65.32
-74.45
-80.32
-80.93
-75.01
-62.55
-44.91
-24.43
-3.73
15.01
30.47
42.19
50.29
55.14
57.10
56.51
53.78
49.42
44.06
38.29
32.64
27.47
22.91
19.02
15.70
12.86
10.35
8.03
5.73
3.28
0.50
-2.72
-6.39
-10.49
-14.95
-19.74
-24.98
-30.96
-38.07
-46.64
-56.62
-67.25
-77.00
-83.76
-85.36
-80.32
-68.34
-50.54
-29.09
-6.67
14.36
32.32
46.42
56.55
63.01
66.26
66.78
65.08
61.70
57.20
52.07
46.69
41.30
36.02
30.92
26.06
21.55
17.44
13.72
10.22
6.64
2.72
-1.73
-6.69
-11.99
-17.42
-22.88
-28.48
-34.55
-41.58
-50.02
-59.96
-70.85
-81.34
-89.35
-92.56
-89.11
-78.27
-60.80
-38.77
-14.96
7.92
27.92
44.00
55.94
63.98
68.52
70.06
69.13
66.38
62.46
57.99
53.36
48.74
44.12
39.47
34.84
30.35
26.16
22.35
18.83
15.43
11.92
8.16
4.10
-0.20
-4.71
-9.42
-14.42
-19.92
-26.25
-33.78
-42.82
-53.37
-64.78
-75.67
-83.98
-87.45
-84.34
-74.02
-57.26
-36.08
-13.13
9.06
28.59
44.45
56.37
64.47
69.06
70.53
69.35
66.16
61.69
56.67
51.60
46.73
42.03
37.42
32.90
28.66
24.96
22.00
19.72
17.76
15.64
12.86
9.18
4.65
-0.49
-5.90
-11.32
-16.67
-22.06
-27.78
-34.27
-41.96
-50.96
-60.84
-70.36
-77.60
-80.44
-77.21
-67.33
-51.62
-32.01
-11.04
8.99
26.38
40.28
50.41
56.87
59.90
59.90
57.45
53.27
48.16
42.77
37.55
32.70
28.28
24.34
20.91
18.05
15.70
13.67
11.67
9.41
6.72
3.55
-0.02
-3.92
-8.09
-12.59
-17.55
-23.20
-29.78
-37.52
-46.45
-56.20
-65.83
-73.83
-78.35
-77.72
-70.92
-58.08
-40.47
-20.20
0.36
19.15
34.76
46.61
54.66
59.25
60.89
60.08
57.40
53.41
48.69
43.67
38.62
33.63
28.67
23.75
19.01
14.67
10.97
7.96
5.44
2.97
0.05
-3.70
-8.32
-13.59
-19.09
-24.43
-29.45
-34.31
-39.55
-45.88
-53.90
-63.75
-74.72
-85.25
-93.04
-95.77
-91.73
-80.45
-62.89
-41.17
-17.92
4.42
24.10
40.24
52.58
61.29
66.61
68.84
68.37
65.78
61.77
57.06
52.20
47.42
42.68
37.90
33.06
28.38
24.20
20.77
18.06
15.72
13.22
10.10
6.15
1.48
-3.60
-8.74
-13.78
-18.72
-23.85
-29.62
-36.52
-44.86
-54.50
-64.54
-73.31
-78.70
-78.69
-72.13
-59.13
-41.14
-20.43
0.51
19.68
35.81
48.35
57.25
62.66
64.91
64.46
61.92
58.04
53.52
48.89
44.37
39.96
35.56
31.15
26.83
22.88
19.56
16.94
14.85
12.90
10.62
7.64
3.91
-0.38
-4.87
-9.20
-13.30
-17.40
-22.01
-27.71
-34.94
-43.64
-53.14
-62.06
-68.55
-70.74
-67.23
-57.60
-42.66
-24.23
-4.72
13.55
28.85
40.28
47.79
51.85
53.16
52.40
50.12
46.70
42.45
37.59
32.37
27.02
21.75
16.77
12.21
8.14
4.57
1.45
-1.30
-3.78
-6.10
-8.39
-10.75
-13.32
-16.17
-19.35
-22.93
-27.06
-31.98
-37.92
-44.85
-52.25
-58.96
-63.34
-63.78
-59.18
-49.43
-35.49
-19.10
-2.25
13.33
26.51
36.75
43.92
48.05
49.27
47.78
43.99
38.54
32.28
26.06
20.54
16.03
12.38
9.19
5.99
2.44
-1.49
-5.57
-9.47
-12.95
-15.96
-18.70
-21.54
-24.86
-28.98
-34.15
-40.51
-47.92
-55.86
-63.24
-68.51
-70.02
-66.51
-57.58
-43.94
-27.20
-9.41
7.55
22.32
34.16
42.79
48.13
50.22
49.26
45.71
40.40
34.32
28.39
23.14
18.63
14.51
10.30
5.72
0.81
-4.10
-8.51
-12.09
-14.77
-16.77
-18.60
-20.95
-24.45
-29.64
-36.68
-45.18
-54.05
-61.60
-65.90
-65.32
-59.09
-47.57
-32.18
-14.93
2.21
17.75
30.83
41.16
48.65
53.28
55.02
53.95
50.40
45.02
38.70
32.24
26.21
20.79
15.84
11.03
6.14
1.19
-3.59
-7.81
-11.22
-13.86
-16.13
-18.76
-22.55
-28.15
-35.72
-44.73
-53.87
-61.28
-65.03
-63.65
-56.59
-44.46
-28.77
-11.47
5.53
20.80
33.43
42.98
49.28
52.39
52.63
50.51
46.77
42.17
37.31
32.47
27.67
22.68
17.31
11.51
5.52
-0.27
-5.42
-9.62
-12.93
-15.74
-18.72
-22.65
-28.17
-35.46
-44.06
-52.80
-59.96
-63.64
-62.37
-55.48
-43.45
-27.71
-10.25
6.98
22.41
35.10
44.57
50.71
53.62
53.60
51.19
47.11
42.17
37.02
31.99
27.09
22.08
16.72
10.98
5.05
-0.65
-5.67
-9.78
-13.06
-15.95
-19.17
-23.49
-29.48
-37.24
-46.18
-55.01
-61.95
-65.07
-62.94
-55.07
-42.11
-25.68
-7.84
9.50
24.96
37.78
47.64
54.36
57.80
57.98
55.25
50.36
44.37
38.27
32.70
27.73
23.06
18.24
13.03
7.53
2.08
-2.84
-6.88
-9.94
-12.23
-14.20
-16.58
-20.12
-25.53
-33.04
-42.20
-51.73
-59.69
-63.96
-62.93
-55.97
-43.63
-27.44
-9.38
8.66
25.22
39.39
50.67
58.81
63.70
65.40
64.17
60.51
55.12
48.77
42.15
35.78
29.98
24.82
20.21
15.97
11.90
7.88
3.89
0.06
-3.48
-6.66
-9.60
-12.64
-16.28
-21.04
-27.32
-35.21
-44.32
-53.68
-61.75
-66.65
-66.67
-60.75
-48.95
-32.50
-13.48
5.80
23.41
38.12
49.40
57.21
61.66
62.97
61.44
57.59
52.19
46.09
40.07
34.62
29.88
25.74
22.00
18.49
15.12
11.87
8.75
5.74
2.84
0.05
-2.63
-5.29
-8.07
-11.25
-15.20
-20.30
-26.88
-34.94
-43.97
-52.81
-59.78
-63.02
-61.09
-53.45
-40.70
-24.42
-6.69
10.46
25.49
37.47
46.03
51.17
53.11
52.25
49.10
44.36
38.75
32.96
27.53
22.73
18.58
14.90
11.46
8.00
4.42
0.77
-2.77
-5.99
-8.73
-11.01
-12.99
-15.00
-17.52
-21.00
-25.86
-32.30
-40.17
-48.71
-56.64
-62.23
-63.79
-60.18
-51.19
-37.67
-21.33
-4.18
11.94
25.77
36.66
44.46
49.23
51.09
50.24
47.03
42.05
36.07
29.93
24.28
19.41
15.20
11.30
7.32
3.10
-1.17
-5.10
-8.29
-10.56
-12.12
-13.48
-15.37
-18.51
-23.38
-30.11
-38.39
-47.38
-55.78
-62.00
-64.49
-62.12
-54.55
-42.39
-27.04
-10.32
5.98
20.49
32.37
41.28
47.18
50.16
50.44
48.36
44.46
39.45
34.08
28.93
24.27
20.07
16.06
11.95
7.62
3.24
-0.85
-4.26
-6.80
-8.62
-10.19
-12.25
-15.58
-20.71
-27.73
-36.18
-44.97
-52.55
-57.21
-57.51
-52.67
-42.85
-29.15
-13.26
2.95
17.91
30.58
40.53
47.65
52.06
53.88
53.31
50.66
46.42
41.22
35.73
30.43
25.51
20.95
16.58
12.23
7.86
3.59
-0.40
-3.96
-7.08
-9.88
-12.60
-15.54
-19.00
-23.31
-28.76
-35.44
-43.03
-50.65
-56.85
-59.91
-58.38
-51.57
-39.89
-24.73
-8.07
8.21
22.70
34.65
43.86
50.41
54.41
55.96
55.20
52.40
48.05
42.78
37.19
31.81
26.91
22.49
18.38
14.31
10.10
5.72
1.34
-2.73
-6.23
-9.03
-11.29
-13.37
-15.79
-19.00
-23.32
-28.89
-35.66
-43.29
-51.13
-58.09
-62.75
-63.63
-59.68
-50.64
-37.25
-21.06
-4.04
11.99
25.71
36.45
44.08
48.81
50.99
51.06
49.44
46.55
42.80
38.55
34.11
29.70
25.52
21.67
18.21
15.16
12.47
10.10
7.96
5.93
3.80
1.41
-1.40
-4.64
-8.27
-12.11
-16.02
-19.99
-24.19
-29.00
-34.85
-41.88
-49.66
-57.10
-62.48
-64.01
-60.41
-51.40
-37.86
-21.58
-4.67
11.03
24.32
34.65
41.95
46.35
48.02
47.28
44.64
40.80
36.60
32.67
29.31
26.40
23.57
20.50
17.16
13.84
11.02
9.06
7.95
7.33
6.55
5.08
2.63
-0.68
-4.45
-8.21
-11.66
-14.78
-17.84
-21.28
-25.57
-31.03
-37.70
-45.10
-52.29
-57.89
-60.43
-58.69
-52.17
-41.22
-27.06
-11.40
3.97
17.64
28.72
36.90
42.22
44.95
45.44
44.15
41.59
38.35
34.90
31.57
28.44
25.39
22.23
18.88
15.38
11.99
8.99
6.60
4.84
3.53
2.33
0.86
-1.13
-3.70
-6.70
-9.84
-12.89
-15.75
-18.58
-21.65
-25.34
-29.88
-35.31
-41.27
-47.02
-51.46
-53.29
-51.44
-45.34
-35.23
-22.17
-7.76
6.27
18.48
28.03
34.65
38.52
40.05
39.72
38.04
35.44
32.30
28.91
25.41
21.91
18.42
15.03
11.83
8.95
6.48
4.41
2.65
1.06
-0.50
-2.14
-3.92
-5.86
-7.92
-10.05
-12.17
-14.27
-16.44
-18.92
-22.05
-26.13
-31.17
-36.70
-41.76
-45.11
-45.53
-42.28
-35.30
-25.28
-13.47
-1.32
9.87
19.16
26.11
30.64
32.92
33.25
31.95
29.39
25.93
21.99
17.99
14.25
10.95
8.09
5.55
3.16
0.77
-1.67
-4.19
-6.67
-9.04
-11.17
-13.03
-14.67
-16.23
-18.06
-20.52
-23.96
-28.49
-33.88
-39.48
-44.28
-47.13
-47.08
-43.60
-36.79
-27.36
-16.40
-5.11
5.45
14.48
21.51
26.28
28.79
29.19
27.81
25.10
21.54
17.59
13.55
9.60
5.74
1.94
-1.87
-5.63
-9.27
-12.59
-15.47
-17.82
-19.73
-21.38
-23.09
-25.18
-27.98
-31.71
-36.40
-41.72
-46.93
-50.95
-52.58
-50.86
-45.42
-36.58
-25.27
-12.75
-0.24
11.24
20.96
28.44
33.34
35.53
35.12
32.53
28.44
23.68
18.95
14.68
10.89
7.35
3.70
-0.26
-4.51
-8.79
-12.70
-15.96
-18.48
-20.44
-22.21
-24.30
-27.17
-31.11
-36.13
-41.74
-47.02
-50.66
-51.36
-48.14
-40.77
-29.83
-16.61
-2.71
10.42
21.71
30.66
37.13
41.24
43.14
43.05
41.25
38.17
34.38
30.40
26.62
23.16
19.82
16.28
12.26
7.71
2.91
-1.67
-5.54
-8.48
-10.64
-12.52
-14.79
-18.02
-22.55
-28.30
-34.73
-40.88
-45.46
-47.15
-44.94
-38.45
-28.12
-15.13
-1.09
12.44
24.26
33.73
40.58
44.84
46.61
46.07
43.57
39.72
35.32
31.18
27.87
25.54
23.90
22.38
20.39
17.60
14.03
10.00
5.99
2.39
-0.60
-3.11
-5.53
-8.42
-12.34
-17.74
-24.72
-32.91
-41.46
-49.07
-54.25
-55.71
-52.71
-45.21
-33.97
-20.33
-5.87
7.94
20.03
29.75
36.91
41.56
43.92
44.21
42.74
39.86
36.00
31.68
27.35
23.35
19.81
16.64
13.61
10.54
7.36
4.18
1.26
-1.22
-3.18
-4.79
-6.32
-8.17
-10.65
-14.04
-18.52
-24.15
-30.76
-37.78
-44.20
-48.62
-49.59
-46.05
-37.68
-25.18
-9.99
5.99
20.99
33.70
43.50
50.29
54.31
55.94
55.51
53.38
49.90
45.51
40.65
35.76
31.16
27.01
23.33
19.98
16.79
13.59
10.32
7.05
3.93
1.10
-1.46
-3.91
-6.55
-9.63
-13.30
-17.60
-22.57
-28.26
-34.64
-41.42
-47.80
-52.51
-54.05
-51.22
-43.61
-31.79
-17.26
-1.90
12.49
24.64
33.93
40.29
43.96
45.22
44.39
41.85
38.01
33.41
28.58
23.96
19.78
16.07
12.75
9.70
6.87
4.23
1.79
-0.48
-2.58
-4.54
-6.38
-8.17
-10.05
-12.29
-15.28
-19.44
-24.99
-31.81
-39.29
-46.27
-51.23
-52.71
-49.69
-42.01
-30.43
-16.50
-1.98
11.57
23.17
32.40
39.20
43.65
45.73
45.48
43.03
38.82
33.53
27.98
22.89
18.61
15.19
12.32
9.59
6.69
3.48
0.08
-3.29
-6.37
-9.06
-11.44
-13.76
-16.40
-19.77
-24.23
-30.05
-37.16
-45.03
-52.59
-58.29
-60.48
-57.94
-50.26
-38.09
-22.95
-6.77
8.64
21.99
32.65
40.50
45.69
48.43
48.88
47.31
44.10
39.82
35.11
30.56
26.49
22.94
19.70
16.43
12.90
9.03
4.93
0.88
-2.87
-6.20
-9.16
-11.96
-14.88
-18.24
-22.33
-27.42
-33.69
-41.07
-49.05
-56.55
-61.99
-63.72
-60.49
-51.96
-38.85
-22.73
-5.54
10.91
25.35
37.12
46.00
52.02
55.35
56.24
55.11
52.47
48.90
44.83
40.57
36.22
31.83
27.49
23.37
19.67
16.50
13.83
11.46
9.11
6.49
3.46
0.01
-3.71
-7.51
-11.23
-14.89
-18.76
-23.31
-29.09
-36.32
-44.72
-53.30
-60.43
-64.29
-63.36
-56.93
-45.33
-29.87
-12.47
4.86
20.47
33.34
43.14
49.98
54.22
56.21
56.22
54.55
51.55
47.74
43.70
39.89
36.49
33.38
30.26
26.93
23.43
20.09
17.37
15.54
14.50
13.75
12.56
10.36
6.95
2.58
-2.17
-6.70
-10.63
-13.91
-16.84
-19.89
-23.61
-28.44
-34.64
-42.11
-50.27
-57.96
-63.64
-65.71
-63.03
-55.25
-43.01
-27.73
-11.17
4.94
19.29
31.03
39.75
45.37
48.09
48.27
46.45
43.31
39.49
35.57
31.96
28.79
25.99
23.34
20.62
17.72
14.74
11.98
9.77
8.29
7.37
6.53
5.16
2.80
-0.65
-4.89
-9.31
-13.31
-16.59
-19.23
-21.77
-24.92
-29.37
-35.46
-42.97
-51.10
-58.50
-63.59
-64.93
-61.64
-53.62
-41.62
-27.03
-11.46
3.60
16.98
27.96
36.20
41.65
44.49
45.04
43.74
41.09
37.62
33.82
30.06
26.55
23.34
20.36
17.51
14.73
12.13
9.89
8.17
6.98
6.04
4.90
3.05
0.18
-3.66
-8.07
-12.52
-16.57
-20.14
-23.51
-27.25
-31.96
-38.06
-45.55
-53.90
-62.07
-68.58
-71.81
-70.37
-63.49
-51.39
-35.20
-16.77
1.87
19.02
33.57
45.06
53.50
59.11
62.15
62.97
61.97
59.79
57.08
54.47
52.27
50.43
48.59
46.31
43.31
39.61
35.56
31.61
28.15
25.24
22.63
19.88
16.50
12.23
7.08
1.37
-4.50
-10.21
-15.68
-21.17
-27.10
-33.93
-41.92
-51.06
-60.96
-70.84
-79.52
-85.49
-87.27
-83.67
-74.37
-60.02
-42.23
-23.13
-4.73
11.44
24.58
34.51
41.41
45.56
47.32
47.08
45.33
42.68
39.72
36.90
34.40
32.18
29.95
27.46
24.59
21.50
18.62
16.40
15.16
14.86
15.03
14.99
14.03
11.73
8.07
3.40
-1.69
-6.67
-11.20
-15.21
-18.91
-22.67
-26.96
-32.18
-38.54
-45.93
-53.75
-60.88
-65.92
-67.45
-64.51
-56.86
-45.11
-30.54
-14.71
0.90
15.06
26.99
36.19
42.46
45.82
46.56
45.18
42.36
38.82
35.19
31.83
28.87
26.21
23.60
20.88
17.97
14.99
12.20
9.84
8.04
6.69
5.45
3.88
1.60
-1.47
-5.15
-9.08
-12.88
-16.33
-19.53
-22.75
-26.37
-30.78
-36.25
-42.76
-49.97
-57.03
-62.68
-65.45
-64.01
-57.69
-46.71
-32.18
-15.84
0.44
15.06
26.99
35.79
41.51
44.46
45.14
44.04
41.61
38.27
34.35
30.12
25.81
21.59
17.60
13.93
10.58
7.52
4.69
1.99
-0.66
-3.35
-6.17
-9.19
-12.46
-15.96
-19.61
-23.33
-27.12
-31.14
-35.68
-41.08
-47.42
-54.31
-60.70
-65.06
-65.73
-61.54
-52.19
-38.47
-22.03
-4.89
11.12
24.71
35.29
42.78
47.41
49.48
49.29
47.20
43.62
39.05
34.05
29.07
24.45
20.28
16.53
13.04
9.69
6.39
3.15
-0.03
-3.15
-6.26
-9.43
-12.73
-16.21
-19.89
-23.82
-28.15
-33.14
-39.15
-46.39
-54.79
-63.65
-71.69
-77.13
-78.19
-73.68
-63.35
-48.13
-29.82
-10.63
7.46
23.00
35.29
44.22
50.05
53.20
54.13
53.29
51.10
47.93
44.10
39.89
35.54
31.23
27.08
23.14
19.38
15.71
12.10
8.51
4.94
1.39
-2.20
-5.89
-9.76
-13.81
-18.05
-22.57
-27.60
-33.53
-40.68
-49.01
-57.79
-65.55
-70.36
-70.38
-64.52
-52.89
-36.72
-18.07
0.85
18.21
32.87
44.37
52.72
58.12
60.85
61.23
59.62
56.49
52.35
47.68
42.86
38.09
33.45
28.92
24.51
20.23
16.15
12.30
8.66
5.16
1.66
-1.92
-5.65
-9.46
-13.30
-17.22
-21.39
-26.21
-32.08
-39.26
-47.50
-55.91
-62.98
-66.91
-66.11
-59.80
-48.22
-32.63
-14.95
2.83
19.07
32.73
43.34
50.82
55.26
56.90
56.10
53.35
49.24
44.38
39.24
34.13
29.22
24.58
20.28
16.34
12.68
9.19
5.70
2.12
-1.50
-5.05
-8.37
-11.44
-14.39
-17.56
-21.37
-26.28
-32.59
-40.28
-48.86
-57.17
-63.55
-66.20
-63.66
-55.39
-41.99
-25.16
-7.09
10.04
24.70
36.14
44.26
49.37
51.82
51.90
49.84
45.92
40.61
34.55
28.43
22.85
18.13
14.21
10.77
7.38
3.74
-0.21
-4.23
-7.97
-11.22
-13.98
-16.59
-19.61
-23.59
-28.99
-35.94
-44.28
-53.38
-62.14
-69.04
-72.36
-70.63
-63.06
-49.95
-32.71
-13.52
5.35
22.03
35.45
45.30
51.74
55.09
55.65
53.71
49.71
44.26
38.14
32.08
26.60
21.81
17.46
13.13
8.46
3.36
-1.92
-6.93
-11.22
-14.58
-17.18
-19.60
-22.72
-27.40
-34.27
-43.34
-53.79
-64.03
-71.94
-75.42
-73.02
-64.40
-50.42
-32.86
-13.85
4.69
21.37
35.44
46.49
54.34
58.93
60.33
58.90
55.30
50.37
44.93
39.57
34.46
29.43
24.12
18.28
11.95
5.56
-0.26
-4.94
-8.28
-10.60
-12.65
-15.45
-19.97
-26.83
-36.18
-47.40
-59.13
-69.31
-75.60
-75.97
-69.43
-56.38
-38.53
-18.32
1.89
20.48
36.65
50.16
60.88
68.46
72.44
72.61
69.31
63.58
56.79
50.19
44.52
39.76
35.40
30.76
25.47
19.58
13.59
8.13
3.62
0.13
-2.76
-5.69
-9.43
-14.62
-21.75
-30.93
-41.82
-53.42
-64.03
-71.48
-73.62
-68.96
-57.30
-39.81
-18.73
3.29
23.93
41.59
55.50
65.52
71.86
74.87
75.01
72.84
68.92
63.83
58.06
51.98
45.89
40.07
34.75
30.09
26.03
22.32
18.61
14.58
10.14
5.40
0.58
-4.12
-8.71
-13.34
-18.34
-24.11
-31.04
-39.52
-49.62
-60.88
-72.02
-80.97
-85.29
-82.93
-73.03
-56.31
-34.97
-11.84
10.37
29.81
45.62
57.70
66.22
71.41
73.48
72.74
69.79
65.43
60.50
55.56
50.81
46.14
41.31
36.28
31.24
26.65
22.99
20.49
18.97
17.80
16.12
13.18
8.62
2.64
-4.12
-10.83
-16.88
-22.09
-26.82
-31.82
-37.98
-45.99
-55.96
-67.23
-78.29
-86.94
-90.84
-88.12
-78.08
-61.39
-40.09
-16.84
5.74
25.72
42.16
54.85
64.03
69.99
72.92
73.03
70.70
66.58
61.56
56.53
52.10
48.48
45.48
42.68
39.71
36.45
33.05
29.89
27.30
25.40
23.95
22.43
20.20
16.80
12.10
6.37
0.12
-6.14
-12.12
-17.82
-23.40
-29.10
-35.16
-41.78
-49.17
-57.45
-66.40
-75.14
-82.08
-85.19
-82.62
-73.43
-58.05
-38.27
-16.62
4.41
22.97
38.15
49.80
58.13
63.44
65.90
65.76
63.40
59.40
54.50
49.40
44.56
40.20
36.33
32.88
29.78
27.03
24.67
22.70
21.13
19.87
18.79
17.69
16.31
14.30
11.41
7.49
2.61
-2.93
-8.73
-14.40
-19.69
-24.56
-29.20
-33.90
-39.06
-45.10
-52.23
-60.33
-68.67
-75.85
-80.08
-79.60
-73.29
-61.15
-44.39
-25.07
-5.50
12.37
27.33
38.91
47.16
52.33
54.73
54.69
52.69
49.34
45.35
41.32
37.62
34.28
31.11
27.83
24.31
20.63
17.07
13.96
11.58
9.96
8.93
8.09
6.98
5.18
2.44
-1.25
-5.65
-10.39
-15.03
-19.26
-22.97
-26.35
-29.75
-33.63
-38.38
-44.20
-50.95
-58.01
-64.28
-68.31
-68.60
-64.05
-54.38
-40.33
-23.51
-5.90
10.62
24.79
36.06
44.34
49.80
52.58
52.84
50.83
47.08
42.33
37.43
33.05
29.44
26.45
23.60
20.43
16.70
12.56
8.48
5.01
2.57
1.17
0.46
-0.20
-1.47
-3.72
-6.95
-10.87
-15.02
-19.00
-22.65
-26.03
-29.40
-33.09
-37.43
-42.65
-48.85
-55.76
-62.68
-68.37
-71.30
-69.98
-63.49
-51.91
-36.35
-18.73
-1.16
14.57
27.35
36.82
43.09
46.50
47.40
46.22
43.45
39.79
35.92
32.39
29.38
26.68
23.85
20.54
16.70
12.61
8.80
5.74
3.61
2.22
1.06
-0.45
-2.74
-5.89
-9.70
-13.73
-17.60
-21.12
-24.42
-27.88
-31.98
-37.09
-43.34
-50.42
-57.55
-63.52
-66.90
-66.36
-61.05
-50.98
-37.07
-20.96
-4.55
10.45
22.94
32.42
38.95
42.80
44.36
43.99
42.09
39.10
35.51
31.72
27.96
24.29
20.65
16.93
13.15
9.43
6.00
3.02
0.55
-1.55
-3.55
-5.75
-8.40
-11.55
-15.07
-18.72
-22.28
-25.69
-29.18
-33.17
-38.15
-44.40
-51.64
-58.92
-64.68
-67.16
-64.97
-57.58
-45.54
-30.26
-13.67
2.39
16.52
27.86
36.08
41.22
43.55
43.54
41.77
38.84
35.26
31.38
27.37
23.30
19.26
15.39
11.87
8.80
6.16
3.79
1.44
-1.11
-3.99
-7.20
-10.68
-14.38
-18.23
-22.25
-26.44
-30.89
-35.77
-41.35
-47.84
-55.24
-62.96
-69.78
-73.97
-73.75
-67.97
-56.51
-40.52
-22.05
-3.49
13.11
26.48
36.22
42.62
46.25
47.68
47.30
45.39
42.20
38.07
33.42
28.67
24.09
19.81
15.82
12.06
8.51
5.22
2.22
-0.59
-3.41
-6.54
-10.18
-14.37
-18.91
-23.48
-27.89
-32.18
-36.81
-42.42
-49.47
-57.82
-66.43
-73.52
-76.98
-75.13
-67.29
-54.08
-37.18
-18.80
-1.01
14.67
27.43
37.04
43.61
47.40
48.73
47.94
45.46
41.73
37.23
32.46
27.84
23.67
20.08
17.00
14.22
11.50
8.66
5.64
2.51
-0.65
-3.77
-6.92
-10.20
-13.74
-17.64
-22.04
-27.16
-33.23
-40.43
-48.52
-56.65
-63.33
-66.70
-65.08
-57.61
-44.60
-27.52
-8.53
10.10
26.58
39.79
49.34
55.29
58.00
57.98
55.78
51.99
47.14
41.79
36.37
31.23
26.55
22.30
18.27
14.19
9.85
5.30
0.81
-3.28
-6.72
-9.55
-12.03
-14.56
-17.52
-21.24
-25.97
-31.97
-39.40
-48.11
-57.31
-65.49
-70.60
-70.69
-64.57
-52.36
-35.55
-16.49
2.29
18.84
32.14
42.03
48.82
52.90
54.47
53.64
50.61
45.87
40.16
34.30
28.96
24.46
20.73
17.44
14.23
10.84
7.23
3.54
-0.02
-3.30
-6.31
-9.23
-12.36
-16.03
-20.59
-26.39
-33.74
-42.71
-52.86
-62.99
-71.21
-75.30
-73.43
-64.85
-50.30
-31.75
-11.78
7.19
23.53
36.49
46.06
52.48
56.04
56.89
55.24
51.48
46.21
40.24
34.29
28.91
24.27
20.26
16.65
13.16
9.66
6.09
2.50
-1.12
-4.79
-8.61
-12.69
-17.21
-22.39
-28.52
-35.91
-44.78
-55.04
-66.00
-76.30
-84.03
-87.13
-84.01
-74.14
-58.25
-38.19
-16.34
4.97
24.03
39.85
52.08
60.75
66.02
68.16
67.49
64.46
59.65
53.75
47.49
41.52
36.27
31.88
28.23
25.01
21.86
18.49
14.74
10.57
6.01
1.13
-4.01
-9.39
-15.07
-21.23
-28.21
-36.41
-46.23
-57.72
-70.37
-82.89
-93.28
-99.23
-98.77
-90.87
-75.86
-55.39
-31.87
-7.78
14.93
35.04
51.98
65.50
75.46
81.80
84.67
84.51
82.11
78.38
74.18
70.03
66.13
62.36
58.51
54.51
50.45
46.62
43.32
40.61
38.19
35.41
31.52
25.98
18.71
10.13
1.03
-7.79
-15.90
-23.32
-30.60
-38.58
-48.14
-59.80
-73.46
-88.13
-101.97
-112.52
-117.32
-114.50
-103.45
-84.99
-61.20
-34.75
-8.26
16.30
37.75
55.57
69.56
79.64
85.80
88.29
87.76
85.16
81.60
77.97
74.69
71.78
68.97
66.05
63.02
60.14
57.72
55.94
54.69
53.53
51.91
49.32
45.57
40.73
35.10
29.02
22.64
15.93
8.75
1.08
-6.84
-14.56
-21.55
-27.52
-32.56
-37.11
-41.88
-47.60
-54.83
-63.78
-74.11
-84.70
-93.70
-98.76
-97.64
-88.98
-72.86
-50.85
-25.55
0.16
23.85
43.95
59.74
71.14
78.46
82.28
83.31
82.42
80.41
77.92
75.28
72.52
69.52
66.18
62.54
58.85
55.49
52.81
51.01
49.93
49.13
47.94
45.71
42.01
36.79
30.31
22.99
15.28
7.41
-0.53
-8.52
-16.52
-24.35
-31.69
-38.29
-44.00
-48.92
-53.44
-58.12
-63.64
-70.51
-78.84
-87.98
-96.46
-102.18
-102.98
-97.31
-84.88
-66.76
-45.05
-22.23
-0.45
18.83
34.87
47.34
56.10
61.09
62.48
60.77
56.84
51.79
46.66
42.15
38.56
35.74
33.39
31.18
28.90
26.52
24.17
22.02
20.17
18.60
17.06
15.15
12.39
8.49
3.40
-2.57
-8.91
-15.09
-20.80
-26.03
-31.12
-36.58
-42.95
-50.62
-59.67
-69.65
-79.49
-87.59
-91.99
-90.96
-83.54
-69.91
-51.42
-30.21
-8.70
11.11
27.86
40.90
50.11
55.69
58.00
57.50
54.79
50.50
45.31
39.75
34.26
29.07
24.35
20.20
16.66
13.74
11.33
9.24
7.20
4.93
2.16
-1.29
-5.43
-10.14
-15.17
-20.26
-25.29
-30.41
-36.08
-42.96
-51.57
-61.90
-73.09
-83.35
-90.37
-91.87
-86.45
-73.98
-55.73
-33.93
-11.18
10.20
28.62
43.27
54.03
61.15
65.06
66.26
65.26
62.53
58.58
53.85
48.70
43.41
38.17
33.15
28.49
24.33
20.71
17.54
14.55
11.35
7.58
3.07
-2.13
-7.71
-13.33
-18.82
-24.26
-30.03
-36.69
-44.82
-54.77
-66.38
-78.73
-90.07
-98.11
-100.50
-95.64
-83.20
-64.38
-41.56
-17.51
5.30
25.27
41.68
54.41
63.62
69.44
72.07
71.85
69.39
65.48
60.87
56.04
51.13
46.03
40.63
35.01
29.54
24.74
20.98
18.36
16.54
14.86
12.57
9.10
4.25
-1.78
-8.54
-15.53
-22.38
-29.04
-35.74
-42.89
-50.99
-60.40
-71.13
-82.56
-93.29
-101.25
-104.08
-99.89
-87.95
-69.12
-45.62
-20.37
3.89
25.27
42.90
56.70
66.85
73.58
76.97
77.23
74.86
70.67
65.65
60.66
56.17
52.17
48.36
44.39
40.11
35.70
31.53
28.02
25.35
23.40
21.70
19.65
16.70
12.50
7.01
0.43
-6.82
-14.28
-21.57
-28.46
-34.96
-41.33
-48.03
-55.54
-64.23
-74.03
-84.28
-93.59
-99.99
-101.42
-96.27
-84.06
-65.59
-42.90
-18.57
4.88
25.60
42.59
55.62
64.86
70.66
73.42
73.54
71.58
68.16
63.97
59.58
55.37
51.51
47.95
44.60
41.35
38.13
34.92
31.77
28.75
25.89
23.23
20.67
18.00
14.95
11.19
6.48
0.78
-5.72
-12.65
-19.55
-26.03
-31.94
-37.34
-42.57
-48.14
-54.62
-62.44
-71.68
-81.76
-91.37
-98.53
-101.03
-97.02
-85.70
-67.67
-44.88
-20.12
3.78
24.62
41.24
53.46
61.73
66.73
69.02
69.02
67.06
63.58
59.14
54.35
49.73
45.53
41.76
38.24
34.77
31.30
27.95
24.97
22.57
20.81
19.46
18.09
16.16
13.26
9.20
4.10
-1.72
-7.86
-14.01
-19.98
-25.73
-31.34
-36.93
-42.71
-48.96
-56.00
-64.09
-73.12
-82.35
-90.29
-94.92
-94.16
-86.72
-72.57
-53.09
-30.71
-8.09
12.60
30.10
43.95
54.25
61.22
65.04
65.95
64.31
60.77
56.11
51.11
46.33
42.04
38.21
34.63
31.08
27.48
23.90
20.60
17.82
15.71
14.12
12.71
10.95
8.40
4.82
0.26
-4.96
-10.37
-15.58
-20.41
-24.93
-29.44
-34.37
-40.17
-47.20
-55.54
-64.97
-74.68
-83.31
-89.01
-89.94
-84.70
-72.95
-55.57
-34.50
-12.20
8.96
27.25
41.77
52.28
59.00
62.32
62.70
60.69
56.94
52.21
47.24
42.56
38.37
34.49
30.60
26.42
21.92
17.39
13.31
10.16
8.12
7.01
6.24
5.07
2.82
-0.78
-5.53
-10.87
-16.09
-20.70
-24.66
-28.42
-32.70
-38.30
-45.64
-54.54
-64.03
-72.45
-77.75
-77.98
-71.92
-59.49
-41.82
-20.98
0.59
20.65
37.63
50.63
59.42
64.21
65.51
64.01
60.53
55.85
50.64
45.33
40.05
34.78
29.43
23.97
18.49
13.19
8.26
3.80
-0.22
-3.98
-7.66
-11.45
-15.43
-19.55
-23.72
-27.83
-31.83
-35.85
-40.14
-45.18
-51.45
-59.20
-68.14
-77.12
-84.22
-87.17
-84.06
-74.07
-57.84
-37.32
-15.20
5.97
24.35
39.00
49.79
56.94
60.85
61.88
60.46
57.10
52.39
46.88
41.02
35.10
29.31
23.75
18.55
13.73
9.27
5.07
1.00
-3.04
-7.07
-11.01
-14.79
-18.37
-21.80
-25.25
-29.03
-33.46
-38.93
-45.72
-53.74
-62.38
-70.30
-75.66
-76.52
-71.47
-60.15
-43.51
-23.53
-2.62
16.95
33.56
46.39
55.24
60.33
62.11
61.08
57.81
52.92
47.01
40.69
34.45
28.72
23.65
19.22
15.15
11.10
6.77
2.06
-2.84
-7.61
-11.90
-15.57
-18.71
-21.63
-24.77
-28.61
-33.60
-40.11
-48.25
-57.65
-67.28
-75.39
-79.90
-78.92
-71.43
-57.69
-39.23
-18.39
2.33
20.94
36.23
47.80
55.73
60.29
61.77
60.48
56.85
51.49
45.16
38.67
32.61
27.30
22.66
18.42
14.19
9.73
4.96
0.05
-4.77
-9.27
-13.36
-17.12
-20.77
-24.63
-29.06
-34.51
-41.38
-49.90
-59.75
-69.86
-78.36
-83.01
-81.76
-73.56
-58.79
-39.13
-17.09
4.74
24.29
40.34
52.39
60.40
64.60
65.36
63.22
58.89
53.23
47.03
40.90
35.19
29.90
24.86
19.84
14.65
9.25
3.77
-1.60
-6.61
-11.10
-15.03
-18.53
-21.89
-25.51
-29.91
-35.65
-43.15
-52.46
-62.91
-73.01
-80.61
-83.39
-79.66
-68.89
-52.06
-31.29
-9.24
11.77
30.12
45.09
56.55
64.55
69.16
70.41
68.52
64.02
57.73
50.67
43.70
37.36
31.78
26.79
22.12
17.51
12.83
8.06
3.29
-1.38
-5.87
-10.14
-14.21
-18.22
-22.43
-27.20
-33.03
-40.38
-49.44
-59.80
-70.20
-78.60
-82.61
-80.23
-70.57
-54.27
-33.35
-10.55
11.49
30.88
46.61
58.44
66.47
70.92
71.97
69.95
65.41
59.12
52.01
44.96
38.61
33.24
28.74
24.70
20.63
16.21
11.37
6.30
1.34
-3.26
-7.45
-11.37
-15.31
-19.57
-24.49
-30.46
-37.87
-46.94
-57.35
-68.01
-76.98
-81.88
-80.58
-71.98
-56.42
-35.72
-12.57
10.15
30.21
46.30
58.05
65.70
69.73
70.61
68.78
64.73
59.10
52.64
46.10
40.02
34.65
29.91
25.55
21.27
16.90
12.44
7.96
3.55
-0.80
-5.17
-9.72
-14.57
-19.87
-25.78
-32.62
-40.77
-50.54
-61.75
-73.42
-83.64
-89.92
-89.94
-82.31
-67.19
-46.32
-22.45
1.43
22.96
40.76
54.39
63.98
69.85
72.27
71.47
67.84
62.04
54.95
47.55
40.65
34.69
29.73
25.51
21.62
17.68
13.46
8.98
4.34
-0.25
-4.68
-8.98
-13.33
-18.04
-23.48
-30.11
-38.35
-48.38
-59.88
-71.76
-82.11
-88.52
-88.78
-81.60
-67.16
-47.04
-23.85
-0.28
21.43
39.89
54.54
65.28
72.27
75.79
76.24
74.21
70.35
65.38
59.81
54.00
48.15
42.41
36.93
31.89
27.36
23.28
19.37
15.30
10.84
5.90
0.62
-4.85
-10.39
-16.09
-22.23
-29.20
-37.47
-47.38
-58.94
-71.59
-83.99
-94.07
-99.36
-97.73
-88.05
-70.69
-47.51
-21.32
4.90
28.67
48.45
63.59
74.16
80.59
83.51
83.57
81.43
77.72
73.01
67.73
62.19
56.57
50.92
45.30
39.83
34.73
30.22
26.40
23.15
20.03
16.51
12.12
6.69
0.45
-6.19
-12.79
-19.14
-25.45
-32.23
-40.18
-49.82
-61.19
-73.50
-85.03
-93.46
-96.35
-92.01
-80.02
-61.48
-38.67
-14.36
8.94
29.50
46.43
59.47
68.72
74.36
76.68
76.17
73.50
69.48
64.83
60.07
55.39
50.71
45.94
41.09
36.37
32.14
28.69
26.02
23.85
21.56
18.52
14.25
8.69
2.17
-4.66
-11.16
-16.96
-22.14
-27.21
-32.99
-40.32
-49.64
-60.76
-72.59
-83.23
-90.33
-91.70
-85.98
-73.12
-54.47
-32.34
-9.39
12.12
30.64
45.42
56.27
63.32
66.87
67.38
65.49
61.96
57.58
52.96
48.42
44.02
39.72
35.49
31.42
27.70
24.51
21.87
19.58
17.26
14.48
10.91
6.44
1.20
-4.54
-10.40
-16.14
-21.65
-27.08
-32.84
-39.53
-47.67
-57.47
-68.38
-78.91
-86.90
-89.98
-86.44
-75.78
-59.02
-38.29
-16.18
5.01
23.72
39.16
51.05
59.34
64.07
65.42
63.88
60.25
55.49
50.43
45.54
40.93
36.48
32.05
27.71
23.71
20.35
17.79
15.87
14.18
12.17
9.38
5.60
0.90
-4.37
-9.78
-14.97
-19.79
-24.38
-29.13
-34.62
-41.43
-49.88
-59.74
-70.05
-79.08
-84.64
-84.70
-78.08
-64.85
-46.47
-25.28
-3.91
15.49
31.52
43.65
51.89
56.60
58.28
57.53
55.01
51.43
47.41
43.37
39.50
35.77
32.08
28.37
24.68
21.20
18.13
15.57
13.46
11.52
9.34
6.52
2.83
-1.68
-6.72
-11.86
-16.74
-21.28
-25.74
-30.64
-36.65
-44.21
-53.30
-63.13
-72.17
-78.40
-79.80
-75.02
-63.85
-47.35
-27.62
-7.16
11.79
27.71
39.94
48.51
53.80
56.22
56.19
54.14
50.56
46.07
41.22
36.42
31.83
27.44
23.22
19.25
15.77
13.11
11.44
10.60
10.07
9.14
7.14
3.78
-0.78
-5.99
-11.28
-16.23
-20.81
-25.38
-30.50
-36.72
-44.35
-53.22
-62.56
-70.97
-76.68
-77.87
-73.29
-62.63
-46.78
-27.64
-7.53
11.28
27.14
39.19
47.28
51.72
53.16
52.33
49.94
46.62
42.87
38.94
34.91
30.71
26.28
21.73
17.30
13.32
10.12
7.80
6.20
4.88
3.30
1.01
-2.20
-6.20
-10.66
-15.15
-19.38
-23.35
-27.33
-31.86
-37.54
-44.76
-53.42
-62.66
-70.88
-76.03
-76.22
-70.30
-58.35
-41.67
-22.43
-3.05
14.49
28.88
39.61
46.71
50.51
51.48
50.19
47.27
43.36
39.02
34.64
30.41
26.31
22.29
18.38
14.72
11.52
8.98
7.09
5.60
4.10
2.17
-0.46
-3.80
-7.66
-11.70
-15.70
-19.56
-23.45
-27.68
-32.70
-38.92
-46.48
-55.05
-63.62
-70.55
-73.90
-71.97
-63.98
-50.40
-32.86
-13.69
4.81
20.91
33.77
43.21
49.45
52.79
53.51
51.92
48.50
43.89
38.76
33.67
28.88
24.42
20.22
16.27
12.71
9.73
7.42
5.65
4.06
2.17
-0.35
-3.65
-7.56
-11.74
-15.85
-19.69
-23.34
-27.11
-31.54
-37.15
-44.22
-52.49
-61.02
-68.27
-72.41
-71.81
-65.50
-53.60
-37.27
-18.47
0.60
17.95
32.24
42.85
49.82
53.57
54.63
53.55
50.80
46.89
42.29
37.44
32.67
28.12
23.83
19.76
15.95
12.49
9.49
6.99
4.86
2.87
0.72
-1.84
-4.90
-8.43
-12.27
-16.24
-20.26
-24.44
-29.10
-34.70
-41.65
-49.89
-58.67
-66.47
-71.33
-71.38
-65.50
-53.76
-37.45
-18.69
0.20
17.24
31.16
41.44
48.16
51.68
52.57
51.43
48.84
45.30
41.21
36.78
32.15
27.39
22.63
18.04
13.84
10.24
7.30
4.92
2.86
0.81
-1.52
-4.22
-7.30
-10.63
-14.11
-17.72
-21.54
-25.80
-30.82
-36.88
-44.10
-52.13
-60.03
-66.31
-69.11
-66.83
-58.72
-45.18
-27.84
-9.01
8.96
24.33
36.22
44.56
49.73
52.21
52.41
50.60
47.09
42.26
36.63
30.78
25.26
20.46
16.51
13.33
10.59
7.92
5.02
1.75
-1.82
-5.43
-8.89
-12.12
-15.20
-18.40
-22.01
-26.33
-31.62
-38.04
-45.53
-53.56
-61.06
-66.36
-67.71
-63.74
-54.13
-39.79
-22.63
-4.92
11.39
25.15
35.92
43.74
48.66
50.65
49.72
46.13
40.56
34.10
27.81
22.45
18.22
14.78
11.54
7.99
3.90
-0.56
-4.99
-8.96
-12.22
-14.83
-17.14
-19.65
-22.92
-27.44
-33.56
-41.34
-50.40
-59.71
-67.68
-72.40
-72.22
-66.27
-54.86
-39.35
-21.75
-4.06
12.19
26.14
37.40
45.77
51.07
53.17
52.13
48.43
42.91
36.61
30.42
24.87
19.97
15.40
10.75
5.78
0.57
-4.57
-9.20
-13.06
-16.14
-18.81
-21.67
-25.49
-30.95
-38.49
-48.01
-58.72
-69.10
-77.11
-80.67
-78.24
-69.37
-54.87
-36.50
-16.45
3.26
21.22
36.60
48.96
58.01
63.48
65.30
63.73
59.53
53.75
47.52
41.60
36.24
31.18
25.98
20.27
14.02
7.57
1.39
-4.07
-8.70
-12.71
-16.57
-20.85
-26.15
-32.94
-41.53
-51.79
-62.98
-73.56
-81.36
-84.14
-80.31
-69.52
-52.79
-32.25
-10.38
10.65
29.38
45.10
57.55
66.61
72.21
74.35
73.25
69.47
63.87
57.41
50.92
44.88
39.38
34.15
28.83
23.18
17.23
11.24
5.59
0.54
-3.88
-7.94
-12.07
-16.81
-22.68
-30.13
-39.45
-50.58
-62.87
-74.88
-84.48
-89.30
-87.43
-78.05
-61.78
-40.51
-16.81
6.80
28.32
46.55
60.94
71.39
78.00
81.11
81.19
78.90
74.94
69.94
64.34
58.41
52.37
46.46
40.97
36.13
32.01
28.44
24.99
21.19
16.73
11.52
5.69
-0.49
-6.79
-13.16
-19.75
-26.87
-35.00
-44.56
-55.74
-68.07
-80.23
-90.09
-95.13
-93.21
-83.31
-65.98
-43.17
-17.70
7.64
30.65
50.05
65.30
76.31
83.23
86.34
86.14
83.40
79.07
74.11
69.16
64.56
60.20
55.83
51.21
46.28
41.26
36.55
32.54
29.38
26.89
24.52
21.54
17.34
11.64
4.69
-2.87
-10.24
-16.83
-22.51
-27.67
-33.06
-39.59
-47.94
-58.25
-69.90
-81.38
-90.48
-94.82
-92.50
-82.73
-66.17
-44.76
-21.08
2.36
23.59
41.48
55.50
65.54
71.66
74.14
73.48
70.47
66.06
61.17
56.38
51.90
47.60
43.23
38.67
34.08
29.84
26.38
23.92
22.33
21.12
19.62
17.20
13.58
8.79
3.23
-2.66
-8.48
-14.09
-19.59
-25.34
-31.84
-39.59
-48.81
-59.14
-69.46
-77.95
-82.41
-80.96
-72.67
-57.97
-38.58
-17.02
4.09
22.71
37.64
48.58
55.76
59.66
60.77
59.54
56.39
51.80
46.29
40.34
34.38
28.68
23.43
18.74
14.64
11.09
7.96
5.02
2.04
-1.16
-4.67
-8.49
-12.58
-16.91
-21.49
-26.41
-31.80
-37.91
-45.09
-53.65
-63.51
-73.90
-83.22
-89.19
-89.63
-83.17
-69.86
-51.25
-29.89
-8.48
10.90
27.11
39.82
49.08
54.96
57.46
56.64
52.88
47.00
40.10
33.26
27.19
22.14
17.87
13.94
9.97
5.80
1.53
-2.62
-6.46
-9.95
-13.23
-16.56
-20.26
-24.66
-30.14
-37.03
-45.64
-55.91
-67.18
-77.94
-86.05
-89.21
-85.73
-75.14
-58.42
-37.68
-15.46
5.93
24.89
40.58
52.68
61.06
65.68
66.68
64.43
59.70
53.49
46.90
40.77
35.52
31.09
27.09
23.04
18.64
13.91
9.13
4.71
0.90
-2.31
-5.27
-8.53
-12.72
-18.42
-26.04
-35.65
-46.79
-58.30
-68.28
-74.43
-74.69
-67.89
-54.29
-35.51
-14.05
7.48
27.05
43.52
56.48
65.92
71.86
74.28
73.26
69.22
62.99
55.68
48.36
41.73
35.97
30.77
25.63
20.14
14.20
8.06
2.20
-2.92
-7.05
-10.32
-13.16
-16.20
-20.15
-25.62
-33.03
-42.37
-53.08
-63.80
-72.49
-76.83
-74.84
-65.67
-49.99
-29.80
-7.86
13.26
31.78
46.90
58.53
66.78
71.71
73.28
71.58
67.07
60.58
53.17
45.76
38.87
32.58
26.69
20.90
15.08
9.23
3.57
-1.72
-6.52
-10.84
-14.86
-18.85
-23.06
-27.81
-33.40
-40.19
-48.49
-58.26
-68.88
-78.89
-86.11
-88.18
-83.30
-70.95
-52.18
-29.36
-5.37
17.10
36.28
51.35
62.26
69.33
72.92
73.38
71.10
66.65
60.73
54.08
47.30
40.76
34.62
28.87
23.47
18.34
13.45
8.77
4.24
-0.16
-4.47
-8.70
-12.90
-17.11
-21.53
-26.44
-32.31
-39.60
-48.59
-59.04
-69.86
-79.16
-84.51
-83.68
-75.37
-59.81
-38.72
-14.85
8.79
29.76
46.63
58.96
67.00
71.28
72.36
70.73
66.89
61.41
54.97
48.23
41.68
35.59
29.98
24.72
19.67
14.77
10.05
5.61
1.52
-2.24
-5.77
-9.26
-12.92
-16.91
-21.38
-26.44
-32.29
-39.20
-47.41
-56.85
-66.82
-75.86
-81.90
-82.78
-76.97
-64.19
-45.57
-23.36
-0.30
21.11
39.12
52.85
62.13
67.30
68.94
67.71
64.30
59.39
53.56
47.29
40.92
34.74
28.94
23.67
19.02
14.98
11.44
8.18
4.99
1.68
-1.88
-5.74
-9.90
-14.29
-18.83
-23.50
-28.38
-33.68
-39.83
-47.17
-55.82
-65.26
-74.16
-80.56
-82.30
-77.76
-66.46
-49.31
-28.35
-6.24
14.57
32.32
46.11
55.79
61.64
64.14
63.83
61.30
57.19
52.17
46.89
41.84
37.32
33.46
30.19
27.38
24.87
22.50
20.14
17.72
15.21
12.60
9.94
7.28
4.61
1.85
-1.19
-4.83
-9.49
-15.58
-23.27
-32.29
-41.74
-50.07
-55.43
-56.06
-50.95
-40.22
-25.12
-7.71
9.75
25.42
38.22
47.72
54.01
57.29
57.72
55.52
51.07
44.96
38.02
31.04
24.61
18.99
14.12
9.81
5.85
2.13
-1.41
-4.80
-8.08
-11.27
-14.41
-17.49
-20.51
-23.51
-26.63
-30.18
-34.53
-40.03
-46.75
-54.24
-61.46
-66.88
-68.81
-65.92
-57.78
-45.01
-29.13
-12.13
4.13
18.27
29.49
37.48
42.20
43.81
42.63
39.23
34.34
28.76
23.17
18.02
13.43
9.33
5.57
2.00
-1.41
-4.64
-7.61
-10.25
-12.54
-14.55
-16.40
-18.31
-20.48
-23.22
-26.83
-31.62
-37.71
-44.79
-51.96
-57.77
-60.52
-58.77
-51.88
-40.26
-25.27
-8.80
7.26
21.45
32.95
41.45
46.95
49.61
49.59
47.16
42.76
37.06
30.80
24.70
19.20
14.42
10.19
6.26
2.43
-1.28
-4.71
-7.66
-10.02
-11.83
-13.29
-14.72
-16.49
-19.01
-22.62
-27.57
-33.77
-40.72
-47.47
-52.70
-55.03
-53.40
-47.35
-37.20
-24.00
-9.24
5.48
18.81
29.78
37.80
42.65
44.28
42.90
38.95
33.16
26.46
19.82
13.96
9.21
5.45
2.27
-0.76
-3.91
-7.16
-10.29
-13.06
-15.30
-17.05
-18.50
-19.98
-21.85
-24.56
-28.48
-33.84
-40.46
-47.60
-53.97
-57.91
-57.95
-53.21
-43.78
-30.67
-15.56
-0.22
13.86
25.71
34.87
41.13
44.45
44.86
42.56
38.06
32.18
25.92
20.16
15.41
11.69
8.60
5.57
2.23
-1.51
-5.33
-8.81
-11.61
-13.64
-15.17
-16.61
-18.44
-21.05
-24.73
-29.66
-35.76
-42.55
-49.05
-53.78
-55.18
-52.05
-44.08
-32.00
-17.37
-2.09
12.18
24.32
33.80
40.52
44.51
45.88
44.79
41.62
36.93
31.45
25.88
20.73
16.19
12.15
8.37
4.65
0.92
-2.66
-5.86
-8.47
-10.45
-11.97
-13.41
-15.24
-18.00
-22.17
-27.98
-35.25
-43.17
-50.38
-55.13
-55.86
-51.67
-42.67
-29.93
-15.13
0.00
14.08
26.26
36.09
43.31
47.72
49.18
47.77
43.89
38.29
31.88
25.49
19.68
14.64
10.27
6.32
2.55
-1.16
-4.75
-8.05
-10.88
-13.17
-15.07
-16.92
-19.29
-22.78
-27.85
-34.57
-42.50
-50.58
-57.29
-61.02
-60.47
-55.07
-45.10
-31.70
-16.46
-1.04
13.18
25.26
34.67
41.16
44.61
45.09
42.86
38.52
32.95
27.13
21.86
17.50
13.91
10.59
7.02
2.96
-1.42
-5.63
-9.21
-11.94
-14.07
-16.13
-18.84
-22.78
-28.33
-35.47
-43.75
-52.24
-59.58
-64.16
-64.56
-60.00
-50.54
-37.19
-21.51
-5.23
10.13
23.49
34.15
41.73
46.09
47.37
45.94
42.51
37.87
32.80
27.81
23.09
18.57
14.03
9.35
4.56
-0.11
-4.35
-7.95
-10.93
-13.64
-16.69
-20.78
-26.51
-34.11
-43.24
-52.92
-61.59
-67.39
-68.67
-64.39
-54.59
-40.31
-23.37
-5.80
10.68
24.94
36.44
45.01
50.66
53.40
53.36
50.94
46.82
41.82
36.66
31.71
26.93
22.05
16.87
11.40
5.98
1.08
-2.96
-6.08
-8.59
-11.08
-14.29
-18.96
-25.63
-34.45
-44.88
-55.65
-64.85
-70.36
-70.44
-64.32
-52.42
-36.23
-17.76
0.96
18.38
33.59
46.12
55.81
62.57
66.34
67.19
65.46
61.75
56.87
51.62
46.57
41.89
37.46
32.99
28.29
23.38
18.49
13.90
9.80
6.12
2.60
-1.18
-5.66
-11.23
-18.22
-26.83
-36.85
-47.57
-57.57
-64.95
-67.81
-64.85
-55.76
-41.43
-23.58
-4.23
14.79
32.14
46.99
58.83
67.36
72.49
74.39
73.59
70.87
67.07
62.85
58.55
54.20
49.72
45.08
40.43
36.11
32.47
29.71
27.71
26.01
23.98
21.01
16.75
11.27
4.95
-1.61
-7.87
-13.54
-18.72
-23.89
-29.76
-37.04
-46.10
-56.58
-67.30
-76.31
-81.39
-80.68
-73.34
-59.80
-41.67
-21.20
-0.61
18.38
34.66
47.67
57.16
63.07
65.53
65.00
62.25
58.32
54.17
50.46
47.39
44.73
42.11
39.24
36.15
33.14
30.63
28.91
27.92
27.27
26.36
24.54
21.44
16.93
11.31
5.03
-1.35
-7.37
-12.80
-17.67
-22.32
-27.26
-33.07
-40.14
-48.45
-57.41
-65.74
-71.74
-73.65
-70.25
-61.23
-47.39
-30.40
-12.32
4.98
20.18
32.59
41.97
48.34
51.80
52.55
51.00
47.82
43.82
39.80
36.29
33.46
31.11
28.88
26.47
23.83
21.16
18.75
16.82
15.33
13.93
12.14
9.52
5.91
1.47
-3.37
-8.15
-12.59
-16.73
-20.89
-25.58
-31.35
-38.54
-47.09
-56.40
-65.26
-72.03
-75.01
-72.90
-65.27
-52.73
-36.74
-19.19
-1.92
13.72
26.92
37.26
44.61
48.95
50.44
49.49
46.76
43.09
39.21
35.61
32.41
29.47
26.59
23.70
20.96
18.63
16.92
15.81
14.93
13.71
11.54
8.06
3.28
-2.41
-8.42
-14.24
-19.54
-24.38
-29.09
-34.14
-40.06
-47.19
-55.57
-64.74
-73.65
-80.69
-83.99
-82.01
-74.03
-60.48
-42.93
-23.56
-4.60
12.31
26.26
37.09
45.03
50.45
53.63
54.82
54.29
52.41
49.67
46.55
43.41
40.35
37.32
34.13
30.70
27.17
23.82
20.99
18.83
17.18
15.58
13.44
10.24
5.81
0.31
-5.80
-11.94
-17.67
-22.85
-27.66
-32.55
-38.08
-44.74
-52.73
-61.87
-71.39
-79.98
-85.94
-87.53
-83.48
-73.49
-58.35
-39.81
-20.11
-1.31
15.16
28.64
39.10
46.85
52.18
55.31
56.41
55.74
53.72
50.87
47.70
44.56
41.59
38.70
35.77
32.75
29.71
26.90
24.55
22.75
21.37
20.03
18.25
15.60
11.87
7.08
1.48
-4.58
-10.75
-16.72
-22.33
-27.62
-32.80
-38.25
-44.45
-51.80
-60.41
-69.83
-79.00
-86.24
-89.70
-87.85
-80.00
-66.57
-49.03
-29.48
-10.04
7.65
22.66
34.69
43.84
50.31
54.33
56.07
55.82
53.99
51.11
47.71
44.21
40.84
37.68
34.69
31.81
29.08
26.58
24.41
22.64
21.20
19.93
18.56
16.82
14.48
11.43
7.69
3.43
-1.14
-5.83
-10.51
-15.15
-19.78
-24.48
-29.37
-34.66
-40.68
-47.84
-56.32
-65.83
-75.30
-82.97
-86.74
-84.87
-76.62
-62.55
-44.35
-24.33
-4.73
12.84
27.54
39.15
47.75
53.51
56.58
57.25
55.99
53.43
50.27
47.02
43.99
41.23
38.65
36.17
33.81
31.62
29.66
27.92
26.33
24.77
23.08
21.09
18.64
15.59
11.85
7.43
2.46
-2.86
-8.29
-13.63
-18.80
-23.84
-28.91
-34.33
-40.47
-47.62
-55.80
-64.53
-72.67
-78.62
-80.58
-77.24
-68.12
-53.91
-36.24
-17.22
1.16
17.42
30.82
41.09
48.31
52.58
54.08
53.13
50.29
46.34
42.17
38.47
35.59
33.42
31.59
29.64
27.27
24.49
21.57
18.97
17.05
15.93
15.32
14.65
13.22
10.51
6.42
1.30
-4.25
-9.61
-14.47
-18.86
-23.05
