BVP
64.000000
-0.00
-0.00
-0.00
-0.00
-0.00
-0.00
-0.00
-0.00
-0.00
-0.00
0.00
0.01
0.01
-0.00
-0.03
-0.05
-0.05
0.00
0.13
0.36
0.66
1.01
1.37
1.72
2.06
2.40
2.79
3.24
3.80
4.42
5.06
5.66
6.20
6.68
7.15
7.68
8.31
9.14
10.09
11.04
11.88
12.56
13.14
13.76
14.65
15.96
17.91
20.32
22.90
25.38
27.58
29.57
31.68
34.32
37.81
42.54
48.15
54.10
59.83
64.97
69.58
74.14
79.34
85.71
93.76
103.00
112.62
121.73
129.77
136.75
143.30
150.75
157.77
166.64
177.95
191.79
206.97
220.57
228.25
225.36
208.53
176.87
132.76
80.05
23.07
-34.94
-92.44
-149.16
-205.23
-260.37
-313.74
-363.87
-409.83
-450.91
-486.50
-515.74
-537.23
-549.22
-549.96
-538.37
-514.21
-478.67
-433.88
-382.45
-327.02
-269.84
-212.63
-156.66
-102.95
-52.37
-5.90
35.58
71.43
101.35
125.50
144.38
158.69
169.15
176.37
180.75
182.57
182.07
179.51
175.23
169.65
163.18
156.15
148.81
141.30
133.69
126.02
118.33
110.69
103.16
95.82
88.71
81.85
75.25
68.91
62.83
57.05
51.60
46.48
41.70
37.24
33.09
29.22
25.62
22.31
19.27
16.53
14.08
11.90
9.95
8.22
6.65
5.25
4.00
2.93
2.05
1.38
0.86
0.44
0.02
-0.47
-1.06
-1.70
-2.28
-2.73
-2.98
-3.08
-3.15
-3.36
-3.82
-4.54
-5.41
-6.24
-6.85
-7.17
-7.30
-7.42
-7.78
-8.53
-9.64
-10.91
-12.08
-12.92
-13.42
-13.73
-14.10
-14.68
-15.49
-16.47
-17.66
-19.25
-21.51
-24.11
-26.18
-26.24
-22.79
-15.32
-4.72
7.04
17.89
26.60
33.08
37.80
40.97
42.09
40.36
35.54
28.61
21.68
16.91
15.37
16.49
18.42
19.20
17.82
14.45
10.17
6.14
3.17
1.57
1.37
2.47
4.73
7.67
10.92
13.98
16.52
18.53
20.04
21.04
21.41
20.96
19.59
17.46
15.02
12.65
10.57
8.88
7.30
5.72
4.27
3.19
2.63
2.62
2.81
2.75
1.99
0.38
-1.97
-4.79
-7.78
-10.74
-13.56
-16.24
-18.73
-21.01
-22.83
-24.16
-24.95
-25.17
-24.93
-24.26
-23.00
-20.77
-17.18
-12.19
-6.30
-0.66
3.40
5.00
4.18
1.95
-0.18
-0.92
0.17
2.56
5.40
7.95
10.13
12.34
15.06
18.34
21.76
24.65
26.40
26.82
26.05
24.27
21.74
18.47
14.52
10.20
5.95
2.11
-1.15
-3.99
-6.77
-9.76
-13.02
-16.33
-19.53
-21.81
-23.11
-23.79
-24.42
-25.43
-26.83
-28.28
-29.19
-29.09
-27.74
-25.49
-22.94
-20.90
-20.02
-20.52
-22.12
-24.14
-25.90
-27.10
-27.85
-28.57
-29.32
-29.53
-28.20
-24.41
-17.86
-8.96
1.43
12.42
23.27
33.30
41.49
46.58
47.48
43.97
37.10
28.83
21.26
15.73
12.57
11.31
11.25
11.99
13.41
15.39
17.45
18.82
18.69
16.76
13.33
9.04
4.81
1.19
-1.61
-3.73
-5.54
-7.44
-9.78
-12.77
-16.36
-20.07
-23.05
-24.15
-22.33
-17.06
-8.76
1.26
11.24
19.59
25.43
28.70
29.94
29.84
28.77
26.79
23.74
19.57
14.52
9.21
4.39
0.69
-1.52
-2.29
-1.92
-1.09
-0.53
-0.76
-2.09
-4.51
-7.73
-11.23
-14.26
-16.03
-16.03
-14.44
-12.25
-10.95
-11.88
-15.49
-21.01
-26.74
-30.87
-32.18
-30.52
-26.43
-20.69
-13.81
-5.98
2.61
11.42
19.61
26.32
30.99
33.57
34.20
33.27
31.02
27.65
23.48
18.93
14.57
10.88
8.11
6.21
5.05
4.45
4.39
4.91
5.91
7.04
7.67
7.12
4.88
0.77
-4.83
-11.18
-17.37
-22.73
-26.94
-30.17
-32.81
-35.21
-37.32
-38.74
-38.85
-37.19
-33.81
-29.27
-24.52
-20.43
-17.38
-15.28
-13.73
-12.35
-10.83
-8.85
-5.88
-1.52
4.20
10.52
15.85
18.37
16.87
11.43
3.52
-4.62
-10.99
-14.61
-15.75
-15.47
-14.86
-14.54
-14.54
-14.63
-14.57
-14.33
-14.10
-14.12
-14.73
-16.14
-18.52
-21.89
-25.81
-29.41
-31.44
-30.68
-26.38
-18.56
-7.97
4.21
16.69
28.44
38.78
47.37
54.24
59.80
64.65
69.25
73.66
77.22
78.81
77.20
71.65
62.28
50.08
36.53
23.19
11.30
1.65
-5.48
-10.32
-13.30
-15.00
-15.87
-16.12
-15.92
-15.56
-15.56
-16.35
-17.92
-19.57
-20.32
-19.47
-17.16
-14.55
-13.20
-14.24
-17.70
-22.61
-27.57
-31.34
-33.29
-33.20
-30.93
-26.22
-18.92
-9.34
1.49
12.03
20.67
26.34
28.81
28.41
25.95
22.24
17.94
13.54
9.40
5.76
2.69
0.12
-2.08
-3.91
-5.36
-6.28
-6.49
-6.00
-5.03
-3.97
-3.23
-3.08
-3.55
-4.44
-5.51
-6.60
-7.71
-8.96
-10.48
-12.30
-14.34
-16.44
-18.42
-20.25
-21.90
-23.52
-25.03
-26.33
-27.22
-27.45
-26.76
-25.02
-22.13
-17.93
-12.20
-4.81
3.90
13.06
21.21
26.82
28.88
27.39
23.44
18.73
14.86
12.75
12.38
13.09
14.17
15.21
16.22
17.51
19.17
21.01
22.59
23.41
23.25
22.08
20.36
18.64
17.44
17.00
17.28
17.82
18.01
17.32
15.52
12.85
9.77
6.98
4.93
3.75
3.23
3.00
2.70
2.18
1.48
0.84
0.52
0.77
1.78
3.49
5.66
7.92
9.96
11.57
12.73
13.58
14.27
14.72
14.91
14.60
13.62
11.97
9.67
6.81
3.52
0.23
-2.19
-2.70
-0.66
3.69
8.93
12.98
14.08
11.67
6.71
1.25
-2.63
-3.77
-2.34
0.59
3.86
6.88
9.82
13.32
17.81
23.17
28.65
33.24
36.14
37.03
36.33
34.74
32.80
30.75
28.45
25.66
22.29
18.51
14.65
10.92
7.17
2.97
-2.28
-8.94
-16.88
-25.34
-33.20
-39.30
-42.75
-43.39
-41.75
-38.89
-36.14
-34.72
-35.55
-39.11
-45.60
-54.83
-66.14
-78.30
-89.55
-98.13
-102.60
-102.51
-98.40
-91.58
-83.59
-75.78
-68.81
-62.48
-55.84
-47.65
-37.20
-24.82
-12.08
-1.13
6.32
9.89
10.70
10.78
11.99
15.04
19.37
23.67
26.76
28.17
28.10
27.08
25.35
22.85
19.37
14.87
9.69
4.29
-0.74
-5.12
-8.91
-12.39
-15.82
-19.17
-22.01
-23.43
-22.42
-18.23
-10.85
-1.12
9.50
19.36
27.13
32.04
33.97
33.24
30.55
26.72
22.61
19.01
16.39
14.78
13.76
12.67
10.96
8.47
5.55
2.82
0.86
-0.28
-0.85
-1.56
-3.01
-5.44
-8.69
-12.34
-15.93
-18.93
-20.75
-20.73
-18.49
-14.34
-9.44
-5.46
-3.84
-4.89
-7.49
-9.48
-8.67
-3.99
4.08
13.84
23.22
30.72
35.80
38.69
39.76
39.14
36.71
32.52
27.01
21.01
15.71
12.02
10.23
9.94
10.33
10.58
10.28
9.59
9.01
9.00
9.71
10.81
11.76
12.01
11.32
9.84
7.93
6.01
4.34
2.92
1.61
0.26
-1.25
-3.09
-5.38
-8.19
-11.26
-13.90
-15.10
-13.88
-9.75
-3.24
4.42
11.50
16.55
18.86
18.52
16.06
12.21
7.81
3.95
1.77
2.11
4.90
8.98
12.38
13.32
11.15
6.66
1.70
-1.88
-3.24
-2.75
-1.56
-0.79
-0.92
-1.73
-2.69
-3.52
-4.33
-5.47
-7.15
-9.28
-11.61
-13.74
-15.52
-17.02
-18.46
-19.94
-21.34
-22.29
-22.32
-21.13
-18.67
-15.20
-11.08
-6.74
-2.54
1.17
3.97
5.48
5.50
4.23
2.14
-0.06
-1.72
-2.54
-2.63
-2.39
-2.35
-2.89
-4.18
-6.04
-7.99
-9.49
-10.27
-10.28
-10.08
-10.44
-11.97
-14.93
-19.03
-23.46
-27.08
-28.70
-27.31
-22.69
-15.59
-7.68
-1.16
2.26
2.11
-0.55
-3.55
-4.53
-2.13
3.70
11.85
20.75
28.99
35.72
40.56
43.33
43.95
42.45
39.11
34.49
29.23
24.18
20.04
17.27
15.99
15.86
16.26
16.43
15.88
14.54
12.78
11.08
9.68
8.56
7.37
5.89
4.07
2.13
0.37
-1.03
-2.11
-3.09
-4.19
-5.58
-7.37
-9.65
-12.42
-15.53
-18.55
-20.76
-21.39
-19.81
-16.01
-10.43
-4.06
2.09
7.23
10.92
13.07
13.73
13.27
12.31
11.69
12.18
13.97
16.44
18.30
18.25
15.66
11.04
5.77
1.52
-0.79
-1.16
-0.37
0.57
1.15
1.42
1.72
2.10
2.10
1.05
-1.51
-5.32
-9.50
-12.77
-14.26
-13.91
-12.53
-11.39
-11.58
-13.48
-16.60
-19.85
-21.97
-22.14
-20.08
-16.11
-10.94
-5.42
-0.44
3.36
5.63
6.52
6.47
6.13
6.07
6.48
7.11
7.36
6.61
4.53
1.37
-2.22
-5.44
-7.70
-8.93
-9.46
-9.90
-10.70
-12.01
-13.68
-15.52
-17.39
-19.07
-20.02
-19.40
-16.54
-11.48
-5.23
0.49
4.18
5.24
4.38
3.05
2.52
3.14
4.22
4.58
3.46
1.05
-1.65
-3.37
-3.29
-1.25
2.26
6.51
10.88
14.85
18.26
21.04
23.22
24.65
25.04
24.16
22.00
18.93
15.62
12.83
11.02
10.30
10.37
10.80
11.17
11.21
10.83
10.03
8.90
7.63
6.50
5.86
5.84
6.37
7.03
7.15
6.20
3.94
0.61
-3.07
-6.18
-8.11
-8.74
-8.67
-8.79
-9.86
-12.12
-15.31
-18.81
-21.83
-23.53
-23.13
-20.20
-14.83
-7.86
-0.77
4.92
8.22
9.24
8.98
8.70
9.14
10.07
10.64
10.02
8.11
5.59
3.53
2.73
3.26
4.53
5.68
6.13
5.66
4.68
3.78
3.52
4.13
5.37
6.73
7.54
7.30
5.88
3.62
1.11
-1.05
-2.44
-3.12
-3.40
-3.78
-4.62
-6.03
-7.82
-9.67
-11.28
-12.58
-13.70
-14.89
-16.41
-18.23
-19.98
-20.95
-20.36
-17.61
-12.64
-6.13
0.87
7.06
11.47
13.69
13.81
12.35
9.97
7.40
5.53
5.19
6.84
10.27
14.43
17.73
18.81
17.16
13.47
9.23
5.95
4.40
4.37
4.97
5.32
5.08
4.47
3.99
3.86
3.92
3.69
2.85
1.44
-0.31
-1.89
-3.05
-3.82
-4.49
-5.34
-6.51
-7.92
-9.38
-10.75
-12.06
-13.47
-14.99
-16.51
-17.73
-18.30
-17.98
-16.72
-14.51
-11.37
-7.35
-2.67
2.34
7.19
11.35
14.41
16.23
16.88
16.57
15.56
14.14
12.61
11.19
10.16
9.63
9.56
9.72
9.72
9.09
7.52
5.16
2.79
1.56
2.39
5.40
9.57
13.07
14.26
12.43
8.25
3.30
-0.81
-3.28
-4.39
-5.04
-6.04
-7.59
-9.34
-10.72
-11.48
-11.74
-11.93
-12.36
-13.11
-14.17
-15.30
-16.40
-17.44
-18.50
-19.75
-21.22
-22.70
-23.64
-23.23
-20.71
-15.78
-8.81
-0.85
6.69
12.54
15.96
16.96
16.16
14.46
12.69
11.38
10.75
10.70
10.96
11.23
11.28
11.04
10.69
10.51
10.85
11.92
13.56
15.44
16.89
17.27
16.25
13.85
10.37
6.31
2.31
-0.81
-2.21
-1.29
1.88
6.24
10.07
11.63
9.97
5.50
-0.17
-5.17
-8.32
-9.67
-10.20
-11.06
-12.70
-14.75
-16.40
-17.16
-17.14
-16.99
-17.19
-17.59
-17.45
-15.68
-11.67
-5.67
1.21
7.50
11.97
14.11
14.11
12.63
10.39
8.03
6.03
4.62
3.88
3.70
3.79
3.85
3.79
3.68
3.77
4.31
5.33
6.66
7.91
8.66
8.61
7.67
6.06
4.11
2.29
1.01
0.38
0.34
0.52
0.40
-0.50
-2.56
-5.99
-10.53
-15.39
-19.18
-20.41
-18.23
-13.08
-6.84
-2.07
-0.89
-3.79
-9.45
-15.30
-18.85
-18.80
-15.41
-10.09
-4.41
0.63
4.85
8.51
11.86
14.76
16.73
17.30
16.48
14.61
12.49
10.88
10.15
10.23
10.72
11.12
11.12
10.71
10.08
9.42
8.84
8.35
7.85
7.30
6.65
5.85
4.84
3.60
2.16
0.62
-1.02
-2.74
-4.60
-6.52
-8.32
-9.77
-10.70
-11.18
-11.36
-11.51
-11.75
-12.15
-12.69
-13.52
-14.84
-16.71
-18.87
-20.71
-21.49
-20.56
-17.55
-12.54
-5.99
1.27
8.10
13.30
16.02
16.05
14.01
11.10
8.53
7.06
6.67
6.82
6.83
6.36
5.51
4.69
4.31
4.57
5.43
6.67
8.00
8.96
9.29
8.84
7.63
5.79
3.52
0.99
-1.58
-3.91
-5.66
-6.63
-6.82
-6.55
-6.30
-6.50
-7.34
-8.74
-10.42
-12.17
-13.88
-15.64
-17.57
-19.69
-21.83
-23.68
-24.93
-25.24
-24.37
-22.18
-18.81
-14.68
-10.44
-6.85
-4.38
-3.26
-3.30
-4.18
-5.66
-7.71
-10.37
-13.25
-15.35
-15.23
-11.74
-4.80
4.27
13.15
19.69
22.83
23.10
22.15
21.68
22.44
24.03
25.38
25.67
24.86
23.66
22.94
22.98
23.31
23.02
21.39
18.34
14.40
10.60
7.79
6.33
6.04
6.32
6.43
5.79
4.08
1.33
-2.10
-5.56
-8.34
-9.85
-9.86
-8.46
-6.05
-3.13
-0.01
3.12
6.22
9.22
11.84
13.70
14.41
13.78
11.92
9.25
6.39
3.93
2.34
1.83
2.26
3.33
4.54
5.42
5.70
5.27
4.20
2.68
1.14
0.21
0.59
2.66
6.05
9.58
11.64
10.96
7.32
1.78
-3.85
-7.95
-9.91
-10.20
-9.97
-10.23
-11.25
-12.64
-13.81
-14.51
-14.98
-15.75
-17.15
-18.86
-20.12
-19.83
-17.22
-12.31
-5.90
0.62
5.87
8.99
9.91
9.19
7.82
6.61
6.06
6.22
6.77
7.28
7.31
6.73
5.68
4.51
3.66
3.45
3.94
4.95
6.23
7.46
8.33
8.54
7.84
6.10
3.51
0.57
-2.16
-4.16
-5.40
-6.16
-6.87
-7.89
-9.37
-11.24
-13.20
-14.70
-15.09
-13.88
-11.11
-7.62
-4.84
-4.07
-5.73
-8.91
-11.73
-12.21
-9.38
-3.70
3.24
9.61
14.29
17.15
18.75
19.76
20.49
20.82
20.62
20.19
20.33
22.39
27.60
36.39
47.95
60.34
71.00
77.73
79.50
76.62
70.37
62.14
52.74
42.17
29.96
15.81
0.13
-15.96
-30.98
-43.68
-53.42
-60.20
-64.51
-66.89
-67.83
-67.71
-66.81
-65.41
-63.85
-62.46
-61.43
-60.59
-59.43
-57.04
-52.56
-45.61
-36.58
-26.70
-17.71
-11.20
-7.81
-6.94
-7.00
-6.41
-4.40
-1.56
0.63
0.92
-0.90
-3.67
-5.54
-5.16
-2.41
1.59
5.23
7.49
8.56
9.45
11.26
14.36
18.22
21.81
24.35
25.61
25.75
25.18
23.97
21.88
18.61
14.08
8.47
2.28
-3.98
-9.93
-15.23
-19.61
-22.81
-24.82
-25.96
-26.67
-27.32
-27.76
-27.34
-25.17
-20.75
-14.27
-6.70
0.70
6.81
11.12
13.71
15.07
15.83
16.47
17.31
18.58
20.26
22.34
24.50
26.40
27.68
28.12
27.57
26.13
24.34
23.17
23.84
27.28
33.52
41.58
49.80
56.59
61.19
63.86
65.43
66.54
67.00
65.87
61.80
53.97
42.53
28.64
14.07
0.63
-10.22
-17.57
-21.05
-20.67
-16.84
-10.10
-1.25
8.75
18.78
27.57
33.87
36.68
35.43
30.13
21.38
10.12
-2.58
-15.65
-28.09
-38.82
-46.67
-50.45
-49.36
-43.35
-33.38
-21.25
-9.24
0.58
6.81
8.86
6.90
1.55
-6.28
-15.53
-25.11
-33.96
-41.40
-47.08
-51.21
-54.28
-56.77
-59.03
-61.24
-63.39
-65.23
-66.15
-65.20
-61.53
-54.88
-46.05
-36.75
-28.89
-23.61
-20.69
-18.77
-16.20
-12.14
-6.94
-1.93
1.54
2.92
2.68
1.88
1.44
1.62
1.93
1.71
0.52
-1.65
-4.25
-6.64
-8.40
-9.48
-10.11
-10.69
-11.57
-12.76
-13.94
-14.50
-13.90
-11.90
-8.77
-5.26
-2.30
-0.60
-0.36
-1.16
-2.15
-2.47
-1.60
0.40
3.06
5.66
7.52
8.25
7.85
6.65
5.23
4.23
4.17
5.21
7.36
10.27
13.43
16.30
18.27
18.80
17.54
14.65
10.98
7.86
6.49
7.27
9.44
11.37
11.47
9.09
4.91
0.53
-2.39
-3.09
-1.94
-0.07
1.36
1.92
1.88
1.89
2.33
3.01
3.26
2.37
0.03
-3.55
-7.51
-10.88
-12.91
-13.40
-12.76
-11.79
-11.35
-11.94
-13.60
-15.80
-17.75
-18.48
-17.24
-13.59
-7.54
0.38
9.30
18.20
26.11
32.29
36.34
38.21
38.06
36.14
32.71
28.09
22.62
16.81
11.28
6.69
3.52
1.89
1.71
2.54
3.91
5.46
6.79
7.41
6.76
4.53
1.07
-2.58
-5.13
-5.76
-4.74
-3.40
-3.45
-6.05
-11.13
-17.46
-23.46
-28.03
-31.02
-33.03
-34.79
-36.50
-37.75
-37.79
-36.15
-32.96
-28.91
-24.81
-21.18
-18.08
-14.89
-10.92
-5.78
0.26
6.32
11.22
14.06
14.59
13.27
11.08
9.02
7.75
7.46
7.96
8.79
9.50
9.83
9.63
8.96
7.99
6.87
5.68
4.28
2.53
0.42
-1.77
-3.53
-4.28
-3.79
-2.30
-0.49
0.63
0.38
-1.54
-4.85
-8.83
-12.71
-15.88
-18.08
-19.02
-18.26
-15.17
-9.43
-1.45
7.35
15.00
19.69
20.73
18.89
15.91
13.54
12.57
12.61
12.54
11.44
9.20
6.52
4.36
3.22
2.91
2.77
2.23
1.24
0.12
-0.47
-0.15
1.01
2.54
3.72
3.89
2.59
-0.15
-3.85
-7.62
-10.53
-11.98
-11.99
-11.28
-10.88
-11.65
-13.85
-16.86
-19.51
-20.57
-19.18
-15.24
-9.33
-2.44
4.29
10.00
14.28
17.19
19.13
20.64
22.06
23.30
24.18
24.27
23.31
21.26
18.29
14.66
10.72
7.07
4.65
4.55
7.32
12.54
18.51
22.97
23.92
20.75
14.36
6.63
-0.48
-5.98
-9.94
-13.20
-16.60
-20.36
-24.07
-26.96
-28.45
-28.45
-27.37
-25.83
-24.32
-23.06
-21.65
-19.47
-15.96
-11.05
-5.22
0.52
5.21
8.21
9.48
9.40
8.45
7.02
5.33
3.57
1.83
0.15
-1.51
-3.24
-4.95
-6.33
-6.90
-6.22
-4.25
-1.49
1.14
2.70
2.69
1.24
-1.00
-3.16
-4.70
-5.58
-6.07
-6.65
-7.65
-9.09
-10.89
-13.06
-15.67
-18.68
-21.52
-22.97
-21.68
-16.81
-8.82
0.55
8.98
14.56
16.71
16.29
14.87
13.84
13.75
14.26
14.70
14.51
13.66
12.38
10.95
9.41
7.65
5.60
3.37
1.25
-0.20
-0.55
0.39
2.39
4.85
6.95
7.96
7.56
5.87
3.49
1.18
-0.42
-1.02
-0.66
0.19
0.95
1.05
0.22
-1.39
-3.23
-4.51
-4.61
-3.33
-0.95
1.88
4.56
6.70
8.28
9.48
10.44
11.19
11.50
11.15
9.93
7.81
4.94
1.49
-2.41
-6.64
-10.90
-14.54
-16.66
-16.48
-13.81
-9.41
-4.78
-1.56
-0.84
-2.51
-5.36
-7.73
-8.36
-6.94
-4.11
-0.97
1.58
3.16
3.87
3.99
3.70
2.98
1.85
0.54
-0.53
-0.60
0.86
4.05
8.64
13.76
18.35
21.49
22.72
22.28
20.93
19.53
18.64
18.27
17.92
17.03
15.30
12.91
10.50
8.71
7.90
8.02
8.67
9.37
9.74
9.52
8.59
6.90
4.55
1.80
-0.96
-3.29
-5.08
-6.31
-7.26
-8.20
-9.27
-10.55
-12.17
-14.28
-16.87
-19.54
-21.38
-21.34
-18.80
-14.01
-8.07
-2.48
1.53
3.65
4.32
4.39
4.50
4.68
4.53
3.64
2.04
0.29
-0.80
-0.60
0.88
3.09
5.12
6.26
6.14
5.05
3.62
2.56
2.28
2.81
3.86
5.02
5.94
6.44
6.51
6.20
5.54
4.63
3.52
2.22
0.64
-1.26
-3.48
-5.86
-8.17
-10.14
-11.63
-12.64
-13.20
-13.36
-13.02
-12.00
-10.09
-7.26
-3.69
0.16
3.59
5.94
6.68
5.63
3.02
-0.70
-5.00
-9.29
-12.94
-15.10
-14.78
-11.37
-5.08
2.83
10.32
15.49
17.51
16.96
15.44
14.60
15.20
16.83
18.34
18.72
17.73
15.92
14.15
12.92
12.09
11.12
9.45
6.89
3.51
-0.29
-4.05
-7.35
-9.78
-10.94
-10.51
-8.48
-5.14
-1.10
2.98
6.59
9.54
11.96
13.95
15.44
16.03
15.35
13.20
9.95
6.43
3.60
2.12
2.12
3.07
4.17
4.84
4.97
4.86
4.91
5.30
5.84
6.01
5.48
4.10
2.11
-0.13
-2.36
-4.53
-6.74
-8.88
-10.41
-10.55
-8.85
-5.57
-1.88
0.52
0.20
-3.35
-9.22
-15.52
-20.05
-21.28
-18.86
-13.56
-6.79
0.08
6.09
10.80
14.12
16.03
16.51
15.64
13.66
10.89
8.03
5.67
4.29
3.98
4.51
5.32
5.91
5.89
5.26
4.40
3.76
3.72
4.28
5.02
5.31
4.66
2.93
0.45
-2.18
-4.45
-6.10
-7.23
-8.09
-8.95
-9.95
-11.12
-12.42
-13.79
-15.06
-16.03
-16.52
-16.62
-16.45
-16.20
-15.80
-14.86
-12.89
-9.69
-5.60
-1.29
2.72
6.41
10.22
14.49
18.92
22.43
23.65
21.80
17.39
12.02
7.74
5.92
6.63
8.83
11.10
12.37
12.40
11.75
11.14
11.09
11.57
12.12
12.12
11.06
8.91
5.96
2.63
-0.72
-3.97
-7.23
-10.56
-13.92
-17.05
-19.65
-21.56
-22.82
-23.62
-24.24
-25.02
-26.43
-28.76
-31.99
-35.40
-37.75
-37.66
-34.35
-28.11
-20.31
-12.90
-7.49
-4.66
-3.75
-3.40
-2.32
0.02
3.20
6.38
8.62
9.57
9.58
9.55
10.31
12.18
14.96
18.29
22.10
26.55
31.70
37.19
42.35
46.15
47.56
46.20
42.66
38.30
34.56
32.25
31.34
31.69
32.89
34.38
35.45
35.55
34.48
32.36
29.74
27.53
27.39
30.82
38.27
48.76
60.40
71.00
78.64
82.16
77.37
63.35
43.59
24.71
12.17
7.76
10.08
16.19
23.18
29.20
34.47
40.78
50.32
64.67
84.40
108.83
135.85
162.30
184.78
201.16
208.63
206.07
193.90
173.91
148.59
120.53
92.05
65.17
41.90
23.42
9.66
-1.30
-12.76
-28.15
-49.74
-77.82
-110.41
-143.91
-174.53
-199.09
-215.94
-224.77
-226.24
-221.54
-212.10
-199.65
-186.18
-174.09
-165.88
-163.81
-169.30
-182.42
-201.78
-224.89
-248.84
-270.68
-287.71
-297.24
-296.89
-284.93
-261.04
-226.63
-184.75
-139.46
-94.79
-53.87
-18.43
11.10
35.26
55.04
71.42
85.29
97.35
108.36
119.15
130.78
144.22
159.97
177.50
195.11
210.20
220.11
223.15
219.01
208.87
194.61
177.97
159.88
140.39
119.34
96.85
74.09
52.92
35.06
21.15
10.32
0.77
-9.14
-19.96
-31.02
-41.04
-49.18
-55.54
-60.92
-66.10
-71.14
-75.30
-77.53
-77.27
-74.77
-70.88
-66.56
-62.37
-58.45
-54.56
-50.52
-46.21
-41.69
-37.06
-32.58
-28.75
-25.94
-24.40
-23.97
-24.18
-24.52
-24.75
-25.05
-25.90
-27.76
-30.66
-34.18
-37.47
-39.69
-40.28
-39.22
-36.94
-34.13
-31.40
-29.08
-27.30
-26.07
-25.54
-25.95
-27.58
-30.50
-34.41
-38.69
-42.59
-45.53
-47.22
-47.80
-47.73
-47.59
-48.04
-49.61
-52.66
-57.26
-63.22
-70.09
-77.20
-83.78
-88.95
-92.16
-93.39
-93.27
-93.04
-94.01
-97.02
-102.04
-108.18
-114.01
-118.15
-119.72
-118.55
-114.99
-109.63
-103.17
-96.18
-89.17
-82.46
-76.18
-70.16
-63.97
-57.03
-48.59
-38.10
-25.44
-11.07
4.33
19.90
34.83
48.40
60.18
70.19
78.58
85.49
90.72
94.12
95.45
94.56
91.24
85.35
77.24
67.51
57.09
47.10
39.57
36.76
40.42
51.28
68.90
92.83
121.82
153.65
184.36
210.75
230.26
241.19
242.80
235.64
223.14
208.63
193.86
177.12
158.47
139.01
120.60
104.30
90.20
80.18
74.98
73.48
70.82
66.53
62.48
61.49
64.76
72.06
86.00
108.26
137.97
168.43
197.09
223.09
246.92
268.38
265.02
225.48
156.84
101.87
68.98
55.93
50.42
46.87
41.67
33.12
24.62
19.56
18.58
16.09
10.41
1.78
-8.08
-18.50
-29.29
-37.61
-41.38
-40.71
-40.53
-42.85
-48.35
-56.57
-67.49
-80.69
-93.42
-102.91
-108.03
-111.34
-114.34
-118.22
-123.57
-131.05
-140.67
-150.85
-159.87
-166.82
-172.52
-176.91
-179.18
-177.85
-171.86
-161.18
-146.96
-131.51
-117.47
-106.76
-99.20
-92.96
-85.89
-76.93
-66.48
-55.89
-46.50
-38.88
-32.79
-27.47
-22.26
-16.74
-10.80
-4.50
1.99
8.29
14.02
18.82
22.55
25.26
27.05
27.92
27.77
26.69
25.22
24.36
25.34
28.95
35.16
43.01
51.03
57.83
62.43
64.47
64.17
62.00
58.52
54.20
49.27
43.76
37.49
30.33
22.38
14.25
6.87
1.35
-1.57
-1.92
-0.41
1.67
3.01
2.77
0.78
-2.60
-6.77
-11.02
-14.60
-16.96
-17.85
-17.49
-16.52
-15.77
-15.74
-16.26
-16.53
-15.57
-12.82
-8.53
-3.65
0.69
3.81
5.58
6.23
5.86
4.22
0.78
-4.74
-11.97
-19.84
-27.05
-32.52
-35.81
-37.15
-37.04
-35.94
-34.07
-31.51
-28.40
-25.10
-22.12
-19.89
-18.67
-18.47
-19.22
-20.91
-23.63
-27.38
-31.88
-36.33
-39.67
-40.83
-39.20
-34.92
-28.86
-22.33
-16.51
-12.08
-8.96
-6.67
-4.70
-3.02
-2.21
-2.88
-5.42
-9.51
-14.22
-18.51
-21.85
-24.38
-26.52
-28.43
-29.76
-29.81
-28.36
-26.06
-24.40
-24.85
-27.99
-33.13
-38.68
-43.02
-45.45
-46.25
-46.32
-46.30
-46.06
-44.77
-41.41
-35.42
-26.95
-16.76
-5.78
5.24
15.73
25.43
34.08
41.40
47.15
51.29
54.06
55.91
57.35
58.82
60.52
62.52
64.90
67.80
71.33
75.38
79.39
82.54
84.15
84.01
82.82
81.87
82.58
85.85
91.68
99.18
106.82
112.97
116.29
116.05
112.28
105.85
98.03
90.36
83.90
79.16
75.93
73.47
70.80
66.90
61.09
53.13
43.30
32.14
20.21
7.86
-4.81
-17.73
-30.51
-42.35
-52.19
-59.16
-63.06
-64.51
-64.62
-64.46
-64.53
-64.68
-64.44
-63.46
-61.85
-60.20
-59.32
-59.86
-62.16
-65.95
-70.56
-75.12
-78.83
-81.12
-81.79
-80.86
-78.48
-74.81
-70.05
-64.49
-58.59
-52.95
-48.18
-44.69
-42.68
-42.11
-42.87
-44.58
-46.66
-48.34
-48.80
-47.54
-44.64
-40.76
-36.84
-33.66
-31.36
-29.50
-27.35
-24.45
-21.06
-17.89
-15.92
-15.68
-17.04
-19.33
-21.83
-24.15
-26.17
-27.80
-28.79
-28.75
-27.39
-24.93
-22.10
-19.75
-18.34
-17.50
-16.25
-13.57
-9.11
-3.50
1.98
6.06
8.19
8.71
8.44
8.05
7.71
7.04
5.62
3.41
0.79
-1.46
-2.83
-3.23
-3.07
-2.93
-3.17
-3.80
-4.55
-5.13
-5.46
-5.71
-6.12
-6.82
-7.74
-8.78
-9.91
-11.29
-13.13
-15.51
-18.21
-20.63
-22.00
-21.66
-19.29
-15.05
-9.59
-3.80
1.62
6.28
10.22
13.69
16.76
19.35
20.98
21.15
19.67
16.74
12.88
8.84
5.48
3.77
4.53
8.09
13.91
20.45
25.66
27.85
26.42
22.13
16.61
11.49
7.68
5.20
3.50
1.94
0.17
-1.92
-4.36
-7.17
-10.14
-12.61
-13.58
-12.10
-7.98
-1.84
4.87
10.58
14.06
14.83
13.00
9.01
3.34
-3.49
-10.92
-18.35
-25.13
-30.89
-35.71
-40.18
-45.19
-51.49
-59.39
-68.45
-77.67
-85.72
-91.34
-93.68
-92.36
-87.48
-79.45
-68.77
-55.81
-41.00
-24.75
-7.72
8.99
24.12
36.38
45.17
50.93
55.05
59.27
64.82
72.00
80.20
88.53
96.22
102.94
108.57
112.83
115.33
115.89
114.97
113.93
114.58
118.53
126.53
138.33
153.16
170.37
189.76
211.11
233.58
255.46
274.35
287.95
294.89
294.80
288.24
275.97
258.42
235.90
208.98
179.06
148.36
119.50
94.59
74.49
58.77
46.05
34.83
24.12
13.61
3.41
-6.36
-15.74
-25.02
-34.32
-43.44
-51.81
-58.80
-64.14
-68.11
-71.45
-74.96
-79.15
-84.05
-89.30
-94.29
-98.53
-101.50
-102.93
-102.79
-101.30
-99.06
-96.93
-95.59
-95.13
-94.85
-93.71
-90.94
-86.76
-82.29
-79.04
-77.98
-79.05
-81.21
-83.15
-84.06
-84.03
-83.69
-83.69
-84.05
-84.20
-83.49
-81.76
-79.63
-77.96
-77.34
-77.48
-77.24
-75.43
-71.26
-64.91
-57.26
-49.24
-41.29
-33.26
-24.71
-15.49
-6.02
2.81
10.07
15.23
18.27
19.55
19.41
18.20
16.38
14.73
14.07
14.66
15.49
14.01
6.78
-9.22
-35.03
-68.87
-106.17
-140.61
-166.17
-178.93
-178.20
-166.69
-149.37
-131.77
-118.31
-111.35
-111.10
-116.29
-124.91
-134.47
-142.03
-144.25
-138.03
-121.51
-95.20
-62.20
-27.24
4.98
31.48
51.71
67.15
80.05
92.21
104.22
115.62
125.54
133.28
138.78
142.53
145.32
147.88
150.70
153.86
157.04
159.74
161.45
161.76
160.41
157.57
153.82
150.12
147.06
144.65
142.01
137.55
129.47
116.16
96.91
72.19
43.53
12.80
-18.13
-47.42
-73.37
-94.47
-110.03
-120.00
-125.02
-126.05
-124.92
-123.43
-122.58
-122.31
-121.77
-120.96
-120.10
-119.14
-117.13
-114.31
-110.99
-107.23
-102.50
-96.26
-90.27
-85.75
-82.26
-76.40
-67.76
-57.52
-47.92
-40.19
-34.16
-31.54
-32.22
-33.84
-30.77
-23.32
-14.58
-8.56
-7.06
-10.08
-20.97
-41.66
-70.87
-101.16
-130.12
-157.07
-182.60
-206.20
-200.59
-153.24
-73.91
-9.43
34.08
59.42
77.53
91.33
102.39
111.65
115.70
112.47
103.30
95.64
91.20
89.30
87.94
86.48
85.19
81.35
73.30
61.75
51.93
44.75
39.59
35.13
31.30
28.66
25.58
20.65
13.63
7.41
2.65
-0.28
-1.14
0.61
4.74
9.02
11.14
10.12
7.54
4.46
1.42
-2.11
-6.95
-13.60
-21.84
-30.00
-35.57
-36.24
-31.90
-24.28
-15.97
-8.90
-3.67
0.22
3.58
6.77
9.49
11.06
10.93
8.96
5.34
0.77
-4.00
-8.28
-11.55
-13.53
-14.22
-13.84
-12.71
-11.16
-9.39
-7.62
-6.18
-5.54
-6.23
-8.78
-13.40
-19.84
-27.27
-34.59
-40.75
-45.04
-47.60
-49.15
-50.85
-53.74
-58.29
-64.00
-69.25
-71.59
-68.21
-56.98
-37.34
-10.78
19.30
48.66
73.56
91.69
102.51
106.90
106.33
102.41
96.54
89.82
82.98
76.38
69.99
63.60
57.14
50.93
45.66
41.84
39.45
38.00
36.82
35.68
34.94
35.22
36.76
39.06
40.91
41.05
38.84
34.68
29.64
25.06
21.80
19.89
18.60
16.74
13.15
7.20
-0.90
-9.91
-17.87
-22.64
-22.61
-17.17
-6.95
6.40
20.68
33.82
44.32
51.55
55.70
57.46
57.64
56.73
54.86
51.79
47.29
41.50
35.00
28.68
23.41
19.66
17.24
15.66
14.26
12.47
9.96
6.56
2.21
-2.98
-8.64
-14.02
-18.24
-20.74
-21.76
-22.32
-24.00
-28.04
-34.70
-42.97
-51.08
-57.60
-62.08
-65.08
-67.45
-69.54
-70.62
-69.13
-63.32
-52.42
-37.34
-20.26
-3.66
10.64
21.80
30.00
35.77
40.00
43.32
45.91
47.84
49.36
50.89
52.73
54.78
56.67
59.27
63.43
69.20
75.64
81.63
86.50
90.20
92.95
95.01
98.92
106.32
116.58
127.36
136.72
144.36
150.86
156.10
158.50
159.16
158.37
154.41
144.83
129.18
110.12
92.11
79.36
74.72
84.69
113.49
159.79
217.28
278.52
337.82
391.49
437.03
440.64
383.63
275.14
147.44
31.74
-56.90
-117.07
-153.81
-173.98
-183.65
-183.13
-171.33
-150.05
-124.54
-100.34
-80.84
-67.16
-59.46
-57.34
-56.82
-51.20
-39.29
-24.24
-10.33
-0.53
3.91
3.03
-2.31
-8.26
-11.29
-10.91
-9.15
-8.81
-11.94
-19.36
-30.96
-45.85
-61.52
-75.55
-87.35
-97.83
-108.54
-120.85
-135.69
-153.65
-175.00
-199.07
-224.34
-248.90
-270.31
-285.77
-293.07
-291.37
-281.58
-266.12
-247.94
-229.39
-211.73
-194.89
-178.08
-160.71
-142.96
-125.73
-110.24
-97.16
-86.22
-76.44
-66.62
-56.14
-45.29
-35.08
-26.49
-19.94
-14.94
-10.54
-5.79
-0.26
5.90
12.13
17.89
22.83
26.60
29.15
30.41
30.33
28.81
25.70
20.78
13.85
4.98
-5.38
-16.44
-27.39
-37.68
-47.16
-55.97
-64.28
-72.09
-79.25
-85.69
-91.59
-97.37
-103.37
-109.49
-114.96
-118.60
-119.41
-117.10
-112.36
-106.53
-101.00
-96.63
-93.37
-90.31
-85.74
-77.65
-64.15
-44.10
-17.75
13.04
45.17
75.36
101.24
121.97
137.85
149.59
157.39
161.08
160.80
157.72
154.09
152.43
154.22
159.06
164.92
169.22
170.12
167.28
161.59
154.18
145.48
134.98
121.79
105.36
86.10
65.33
44.96
26.60
10.96
-2.28
-14.20
-26.04
-38.66
-52.22
-66.26
-79.87
-92.33
-103.31
-112.95
-121.64
-129.51
-136.25
-141.28
-143.62
-142.13
-136.15
-125.68
-111.64
-95.60
-79.25
-64.28
-52.43
-44.57
-40.22
-38.02
-36.02
-32.79
-27.31
-18.90
-7.82
4.33
15.73
25.01
31.23
34.17
33.93
31.66
29.30
27.91
26.04
21.21
11.53
-3.22
-20.87
-38.74
-54.15
-66.05
-69.94
-66.94
-63.44
-65.24
-75.55
-87.21
-94.00
-93.33
-83.66
-67.90
-51.70
-39.91
-34.80
-35.75
-40.32
-46.38
-52.13
-56.33
-58.69
-59.41
-57.42
-50.32
-35.61
-12.25
17.51
49.34
78.54
101.24
115.37
121.36
121.34
117.78
112.36
105.35
96.41
85.32
72.06
56.88
40.40
23.60
7.48
-6.99
-19.30
-28.99
-35.55
-38.42
-37.56
-33.58
-28.06
-23.32
-21.42
-23.05
-26.49
-27.74
-22.01
-5.89
20.98
55.43
92.08
125.32
151.34
168.81
178.43
181.70
179.78
173.43
163.34
150.80
137.81
126.53
118.41
113.72
111.59
110.66
109.79
108.51
106.91
105.34
103.92
102.42
100.22
96.71
91.47
84.48
76.16
67.24
58.59
50.87
44.18
37.97
31.18
22.65
11.71
-1.35
-15.21
-27.96
-37.78
-43.69
-46.06
-46.56
-47.64
-51.78
-60.55
-73.99
-90.35
-106.56
-119.07
-124.98
-123.09
-114.00
-99.91
-83.55
-67.39
-53.08
-41.43
-32.76
-27.05
-24.00
-23.03
-23.40
-24.46
-25.94
-27.92
-30.60
-33.89
-37.14
-39.36
-39.55
-37.33
-32.99
-27.37
-21.37
-15.58
-10.26
-5.49
-1.55
0.94
1.16
-1.47
-6.90
-14.40
-22.57
-29.97
-35.57
-39.06
-40.83
-41.76
-42.95
-45.49
-50.14
-57.09
-65.55
-73.56
-78.33
-76.91
-67.30
-49.34
-24.85
2.81
29.90
53.17
70.54
81.29
85.78
85.09
80.56
73.52
65.05
56.05
47.31
39.72
34.22
31.50
31.87
34.95
39.83
45.45
50.87
55.49
59.10
62.03
65.08
69.32
75.54
83.76
92.67
99.95
103.12
100.49
92.03
79.23
64.35
49.39
35.35
22.24
9.57
-3.02
-15.51
-27.49
-38.50
-48.15
-56.03
-61.55
-63.83
-61.95
-55.09
-43.16
-26.95
-8.21
10.73
27.61
40.82
49.83
54.96
56.97
56.50
53.81
48.81
41.46
32.14
21.76
11.55
2.70
-4.06
-8.67
-11.65
-13.72
-15.57
-17.61
-19.86
-22.00
-23.56
-23.99
-22.98
-20.59
-17.27
-13.92
-11.37
-10.33
-11.05
-13.32
-16.73
-20.90
-25.58
-30.52
-35.31
-39.42
-42.42
-44.31
-45.65
-47.09
-48.85
-50.22
-49.64
-45.36
-36.41
-23.28
-7.86
7.32
20.11
29.48
35.52
38.93
40.30
39.80
37.28
32.70
26.58
19.91
14.00
9.83
7.72
7.27
7.54
7.70
7.22
6.10
4.61
3.01
1.35
-0.43
-2.24
-3.61
-3.74
-1.89
2.23
8.13
14.71
20.61
24.73
26.44
25.49
21.89
15.74
7.46
-1.92
-10.57
-16.40
-17.58
-13.44
-4.89
6.12
17.10
25.96
31.56
33.67
32.96
30.46
27.28
24.38
22.31
21.07
20.16
18.84
16.55
13.26
9.58
6.44
4.60
4.31
5.12
6.21
6.83
6.50
5.24
3.30
0.84
-2.12
-5.66
-9.88
-14.44
-18.73
-22.21
-24.52
-25.82
-26.83
-28.55
-31.91
-37.32
-44.44
-52.14
-58.78
-62.58
-62.16
-56.89
-47.15
-34.18
-19.80
-5.86
6.18
15.54
22.12
26.21
28.13
28.17
26.57
23.72
20.21
16.78
14.03
12.22
11.17
10.52
9.97
9.39
8.99
8.97
9.34
9.81
9.77
8.44
5.21
0.06
-6.23
-12.27
-16.69
-18.73
-18.74
-17.97
-17.88
-19.33
-22.39
-26.51
-31.14
-36.04
-41.26
-46.60
-51.13
-53.32
-51.59
-45.13
-34.38
-20.82
-6.46
7.01
18.54
27.59
34.24
38.79
41.58
42.94
43.05
42.07
40.20
37.83
35.55
33.90
33.10
32.90
32.69
31.77
29.76
26.76
23.21
19.60
16.19
12.84
9.25
5.15
0.62
-4.07
-8.61
-12.77
-16.48
-19.75
-22.80
-25.96
-29.67
-34.34
-39.92
-45.78
-50.63
-52.87
-51.27
-45.56
-36.56
-25.72
-14.38
-3.29
7.34
17.37
26.10
32.31
34.75
32.95
27.69
20.82
14.40
9.73
6.91
5.03
3.07
0.60
-1.92
-3.52
-3.43
-1.57
1.36
4.36
6.62
7.82
8.34
8.81
9.78
11.47
13.63
15.65
16.75
16.20
13.39
8.07
0.35
-9.17
-19.58
-29.68
-38.20
-43.95
-46.06
-44.04
-37.98
-28.59
-17.08
-4.93
6.42
15.83
22.64
26.68
28.18
27.76
26.15
24.15
22.43
21.41
21.33
22.11
23.45
24.79
25.29
24.10
20.65
15.15
8.72
2.93
-1.01
-3.09
-4.58
-7.38
-12.81
-20.72
-29.46
-36.72
-40.72
-41.05
-38.55
-34.53
-29.91
-24.81
-18.79
-11.51
-3.06
6.07
15.25
24.00
32.08
39.11
44.59
47.80
48.10
45.36
39.94
32.69
24.55
16.27
8.27
0.83
-5.81
-11.32
-15.37
-17.85
-18.94
-19.18
-19.15
-19.25
-19.55
-19.85
-19.84
-19.24
-17.93
-15.95
-13.52
-11.09
-9.18
-8.22
-8.34
-9.25
-10.36
-11.24
-11.81
-12.53
-13.97
-16.38
-19.38
-22.05
-23.35
-22.63
-19.76
-15.06
-9.16
-2.79
3.18
7.77
10.27
10.39
8.50
5.49
2.31
-0.41
-2.61
-4.52
-6.27
-7.69
-8.31
-7.78
-6.11
-3.87
-1.97
-1.22
-1.84
-3.43
-4.90
-5.03
-3.05
1.07
6.40
11.29
14.15
14.22
12.05
9.26
7.85
9.35
14.41
22.31
31.38
39.77
46.32
50.96
54.47
57.91
62.07
67.67
74.64
81.82
87.23
88.66
84.22
72.93
55.35
33.88
13.23
-1.90
-8.55
-6.56
1.90
13.43
24.42
32.11
35.00
34.19
31.63
29.12
27.66
27.51
28.26
28.51
26.67
15.29
-7.65
-37.56
-66.42
-88.95
-104.59
-115.04
-122.07
-126.29
-127.94
-126.72
-124.02
-122.82
-125.92
-133.39
-141.28
-144.62
-137.88
-118.66
-88.07
-51.28
-15.71
12.07
29.29
38.24
43.43
49.05
56.28
63.52
67.34
64.76
55.59
39.49
21.09
6.16
-1.00
0.45
8.18
18.09
26.26
30.56
30.98
29.24
26.61
23.34
18.77
12.45
4.94
-2.39
-7.58
-9.20
-6.48
0.02
8.89
18.37
27.20
35.01
42.17
49.39
56.96
64.50
70.56
73.28
71.18
63.98
52.76
39.45
25.99
13.59
2.75
-6.72
-15.09
-22.38
-28.39
-32.95
-36.14
-38.32
-40.07
-41.95
-44.35
-47.49
-51.17
-54.87
-57.93
-59.73
-60.05
-59.15
-57.72
-56.62
-56.58
-57.95
-60.74
-64.65
-69.24
-73.98
-78.07
-80.67
-81.00
-78.70
-73.96
-67.59
-60.67
-54.35
-49.39
-45.73
-42.82
-39.84
-36.08
-31.01
-24.33
-16.16
-7.06
1.94
10.27
17.80
24.86
32.04
39.88
48.39
56.89
64.15
69.06
71.92
73.83
75.51
76.30
74.11
66.71
53.16
34.75
14.88
-1.12
-8.69
-5.99
5.56
22.76
42.83
64.63
88.58
109.99
123.94
127.80
123.11
113.28
100.78
87.16
73.42
60.26
48.07
37.87
30.30
25.27
21.97
19.48
17.43
15.89
15.33
14.90
14.34
13.42
11.82
9.29
5.98
2.73
0.62
0.27
1.48
4.07
7.45
10.73
12.92
13.18
10.96
7.77
4.42
1.37
-0.97
-2.34
-2.85
-2.99
-3.41
-4.81
-7.64
-12.13
-17.61
-22.44
-24.60
-22.65
-16.56
-8.02
0.24
5.67
6.82
4.10
-0.58
-5.01
-7.73
-8.50
-8.06
-7.26
-6.36
-5.14
-3.11
-0.17
3.06
5.54
6.30
5.01
2.00
-1.76
-5.37
-8.36
-10.75
-12.97
-15.60
-19.03
-23.30
-28.10
-32.79
-36.70
-39.38
-40.89
-41.88
-43.23
-45.68
-49.34
-53.62
-57.48
-59.91
-60.31
-58.58
-54.97
-49.78
-43.21
-35.42
-26.68
-17.49
-8.47
-0.20
7.02
13.08
18.11
22.03
24.69
25.90
25.60
23.93
21.32
18.47
16.25
15.44
16.41
18.83
21.64
23.48
23.25
20.63
16.31
11.59
7.73
5.33
4.15
3.35
2.11
0.14
-2.28
-4.50
-6.13
-7.18
-8.19
-9.81
-12.46
-16.19
-20.53
-24.85
-28.64
-31.66
-33.95
-35.58
-36.43
-36.20
-34.52
-31.18
-26.32
-20.40
-14.06
-7.99
-2.78
1.12
3.54
4.58
4.68
4.44
4.53
5.28
6.62
8.21
9.75
11.30
13.50
17.31
23.60
32.72
44.24
56.88
69.00
78.97
85.88
90.03
93.11
97.91
107.55
124.54
149.94
182.85
220.37
258.07
291.00
314.75
326.47
325.51
313.28
292.68
267.01
239.02
210.36
181.63
152.73
123.31
93.04
61.67
29.03
-4.72
-38.86
-71.98
-102.24
-128.10
-148.67
-164.13
-175.51
-184.09
-190.89
-196.48
-200.88
-203.87
-205.16
-204.55
-201.93
-197.39
-191.20
-183.84
-175.94
-168.15
-160.92
-154.45
-148.58
-142.87
-136.76
-129.70
-121.44
-112.18
-102.57
-93.50
-85.81
-79.89
-75.57
-72.20
-69.07
-65.84
-62.45
-59.25
-56.43
-53.76
-50.62
-46.21
-39.95
-31.70
-21.62
-9.98
2.92
16.59
30.15
41.67
49.13
51.10
47.23
38.26
25.87
12.19
-0.77
-11.52
-19.81
-25.68
-28.92
-28.87
-24.69
-15.75
-2.03
15.57
35.22
53.11
65.97
71.96
70.67
62.41
47.60
26.79
0.90
-28.36
-61.08
-94.61
-123.20
-140.68
-144.43
-136.93
-124.45
-114.54
-113.20
-129.31
-164.83
-213.15
-263.22
-306.03
-337.14
-355.97
-364.19
-364.52
-369.92
-388.02
-416.56
-446.91
-471.89
-488.51
-496.76
-497.48
-491.44
-491.98
-506.05
-529.44
-551.90
-566.92
-573.99
-575.46
-573.03
-486.74
-291.24
-29.56
223.41
419.64
549.18
621.90
652.54
655.46
643.24
613.29
566.38
511.62
461.64
422.54
395.23
377.09
365.33
358.20
344.60
318.35
282.06
243.67
209.17
180.82
158.55
142.13
131.81
122.33
111.38
101.71
98.08
102.13
111.24
120.53
125.66
124.47
114.19
95.12
70.83
46.09
24.31
6.98
-5.59
-13.34
-16.39
-16.45
-15.32
-14.29
-14.08
-15.20
-17.84
-21.90
-26.75
-31.50
-35.51
-38.63
-41.32
-44.46
-48.73
-53.95
-58.85
-61.38
-59.52
-52.31
-40.55
-26.64
-14.00
-5.74
-3.54
-7.19
-14.89
-24.10
-32.49
-38.62
-41.93
-42.36
-39.91
-34.50
-26.08
-14.93
-1.87
11.90
24.99
36.22
45.02
51.22
55.00
56.73
56.88
55.96
54.61
53.70
54.21
57.01
62.28
69.31
76.49
81.87
83.93
82.25
77.64
71.69
65.94
61.16
57.25
53.47
49.15
44.03
38.43
32.89
27.85
23.54
19.98
17.11
14.65
11.97
8.46
3.43
-3.41
-11.73
-20.60
-28.80
-35.07
-38.32
-37.64
-32.40
-22.64
-9.26
5.91
20.53
32.36
40.19
44.15
45.44
45.79
46.68
48.91
52.60
57.40
62.66
67.71
71.95
75.04
76.95
77.97
78.51
78.84
78.83
78.18
76.65
74.22
71.19
67.96
64.73
61.41
57.74
53.49
48.64
43.40
38.10
32.93
28.05
23.29
18.42
13.18
7.41
1.23
-5.09
-11.24
-16.98
-22.29
-27.32
-32.14
-36.43
-39.46
-40.15
-37.56
-31.39
-22.17
-11.35
-0.58
8.61
15.38
19.56
21.39
21.20
19.27
16.06
12.50
9.99
9.85
12.61
17.44
22.41
25.22
24.41
20.00
13.44
6.82
1.79
-0.98
-1.86
-1.65
-1.07
-0.45
0.21
0.83
1.23
1.05
-0.08
-2.37
-5.86
-10.17
-14.72
-18.84
-22.07
-24.47
-26.61
-29.42
-33.67
-39.54
-46.34
-52.71
-57.05
-58.17
-55.69
-50.16
-42.91
-35.41
-28.90
-24.02
-20.76
-18.72
-17.59
-17.33
-18.29
-20.95
-25.55
-31.82
-38.84
-45.21
-49.17
-48.92
-43.07
-30.90
-12.82
9.61
33.88
57.17
76.97
91.71
101.10
105.95
107.70
107.72
106.73
104.68
101.08
95.51
88.13
79.87
71.93
65.14
59.55
54.44
48.91
42.66
36.42
31.70
30.06
32.23
37.60
44.44
50.57
54.26
54.66
52.13
47.76
42.70
37.71
32.87
27.78
22.03
15.55
8.87
2.91
-1.43
-3.81
-4.74
-5.50
-7.63
-12.37
-20.10
-30.16
-41.14
-51.46
-59.97
-66.13
-70.02
-71.93
-72.11
-70.56
-67.23
-62.28
-56.15
-49.63
-43.61
-38.94
-36.08
-35.13
-35.78
-37.34
-39.00
-40.06
-39.99
-38.33
-34.73
-29.03
-21.52
-13.09
-5.15
0.61
2.92
1.38
-3.10
-8.85
-14.15
-18.09
-20.77
-22.93
-25.41
-28.54
-31.97
-34.48
-34.76
-32.18
-27.21
-21.16
-15.52
-11.75
-10.39
-11.22
-12.51
-12.38
-10.15
-6.84
-4.22
-3.61
-5.54
-9.16
-13.27
-15.03
-12.19
-4.93
3.89
10.71
13.50
11.83
7.64
3.28
3.64
12.43
29.17
48.83
64.99
73.55
72.80
65.04
53.93
47.77
55.12
80.51
123.48
180.72
248.61
320.98
391.17
426.75
401.59
315.04
195.23
77.93
-14.20
-70.71
-104.66
-127.92
-149.07
-168.50
-183.31
-192.19
-197.68
-204.00
-213.04
-226.31
-241.34
-255.00
-261.43
-249.57
-218.75
-178.99
-149.85
-135.90
-136.11
-142.70
-149.81
-151.62
-144.62
-129.66
-109.94
-88.50
-65.93
-43.64
-22.43
-3.91
11.38
23.46
31.63
35.39
34.99
32.38
28.59
24.99
22.59
22.64
25.88
31.41
37.48
42.30
45.40
46.72
47.26
48.36
51.20
56.28
63.00
70.36
77.64
84.60
90.79
95.63
98.37
98.45
95.89
91.42
86.64
83.40
83.02
85.43
89.23
92.23
92.53
89.09
82.15
72.93
62.99
53.64
45.63
39.08
33.74
29.30
25.55
22.48
20.19
18.84
18.43
18.80
19.55
20.17
20.42
20.19
19.63
18.73
17.21
14.54
10.22
3.96
-3.97
-12.74
-21.29
-28.68
-34.50
-39.05
-43.15
-47.76
-53.41
-59.85
-66.05
-70.57
-72.21
-70.55
-66.08
-60.04
-53.84
-48.50
-44.41
-41.26
-38.46
-35.49
-32.17
-28.86
-26.07
-24.26
-23.43
-23.12
-22.78
-22.05
-21.04
-20.05
-19.26
-18.39
-16.88
-14.33
-10.97
-7.77
-6.07
-6.78
-9.89
-14.45
-19.11
-22.82
-25.29
-26.91
-28.33
-30.07
-32.37
-35.17
-38.31
-41.55
-44.56
-46.97
-48.33
-48.48
-47.29
-44.79
-41.09
-36.31
-30.73
-24.81
-19.14
-14.28
-10.43
-7.41
-4.77
-2.12
0.60
3.11
5.00
6.17
6.90
7.78
9.37
11.81
14.86
17.96
20.63
22.66
23.97
24.59
24.38
23.16
20.82
17.54
13.80
10.14
7.05
4.62
2.60
0.54
-2.02
-5.43
-9.80
-14.89
-20.05
-24.32
-26.86
-27.32
-26.12
-24.27
-22.83
-22.26
-22.26
-21.96
-20.51
-17.75
-14.29
-11.23
-9.47
-9.30
-10.30
-11.69
-12.84
-13.54
-13.97
-14.45
-15.11
-15.94
-16.59
-16.73
-16.19
-15.05
-13.62
-12.39
-11.83
-12.22
-13.67
-16.02
-18.87
-21.78
-24.36
-26.47
-28.20
-29.81
-31.59
-33.67
-35.97
-38.34
-40.51
-42.16
-42.91
-42.39
-40.23
-36.25
-30.50
-23.25
-14.99
-6.35
1.97
9.19
14.72
18.08
19.20
18.44
16.47
14.00
11.60
9.66
8.47
8.30
9.24
11.02
12.86
13.66
12.42
8.79
3.33
-2.73
-8.09
-12.02
-14.71
-16.98
-19.77
-23.52
-28.01
-32.61
-36.82
-40.67
-44.80
-50.08
-57.03
-65.56
-74.81
-83.43
-90.14
-94.12
-95.24
-94.11
-91.64
-88.64
-85.58
-82.09
-77.09
-69.01
-56.30
-38.36
-16.06
8.56
32.89
54.53
72.13
85.77
96.89
108.00
121.60
139.39
161.96
188.48
216.34
241.31
258.49
263.70
255.12
233.51
201.87
165.20
129.30
99.18
77.89
66.15
62.75
65.49
71.36
76.44
77.50
72.48
60.43
41.34
16.13
-14.88
-46.66
-72.21
-88.41
-96.70
-100.67
-103.44
-106.53
-109.91
-112.54
-115.43
-117.04
-117.20
-115.76
-112.32
-106.56
-98.78
-89.83
-80.93
-73.09
-65.04
-57.42
-50.59
-44.45
-38.85
-33.79
-29.36
-25.50
-21.85
-18.00
-14.61
-12.29
-11.41
-11.97
-13.62
-15.74
-17.72
-19.15
-19.87
-20.55
-21.73
-23.67
-26.27
-29.21
-31.90
-33.60
-33.60
-31.44
-27.46
-22.37
-17.12
-12.55
-9.12
-6.92
-5.72
-5.30
-5.40
-5.82
-6.07
-5.45
-3.32
0.42
5.21
9.98
13.66
15.77
16.54
16.76
17.18
18.09
19.20
19.96
20.07
19.59
19.02
18.88
19.54
21.12
23.64
27.16
31.81
37.82
45.18
53.62
62.45
70.65
77.01
80.42
80.14
76.10
68.97
60.10
51.14
43.62
38.50
36.07
36.00
37.62
40.29
43.49
46.89
50.28
53.40
55.92
57.32
57.03
54.62
50.09
44.17
38.22
33.97
33.00
36.14
43.34
53.55
65.15
76.46
86.07
93.05
96.94
97.73
95.89
92.31
87.98
83.64
79.53
75.14
69.59
62.10
52.25
40.26
26.66
11.98
-3.64
-20.39
-38.50
-57.76
-77.33
-95.86
-111.90
-124.44
-133.15
-138.42
-141.06
-141.97
-141.78
-140.90
-139.60
-138.24
-137.39
-137.70
-139.68
-143.49
-148.83
-154.88
-160.56
-164.84
-167.19
-167.85
-167.67
-167.81
-168.96
-171.00
-172.86
-172.97
-169.88
-162.83
-151.90
-137.74
-121.13
-102.78
-83.22
-62.89
-42.30
-21.90
-1.97
17.41
36.31
54.49
71.48
86.67
99.71
110.69
120.28
129.51
139.40
150.61
163.24
176.93
191.05
204.87
217.83
229.51
239.57
247.63
253.27
256.01
255.60
252.16
246.18
238.29
229.01
218.22
205.39
189.94
171.79
151.67
131.03
111.44
94.33
80.59
70.59
64.42
61.84
62.20
64.37
66.83
68.01
66.81
62.86
56.59
48.88
40.59
32.37
24.38
16.51
8.49
0.12
-8.71
-17.93
-27.36
-36.90
-46.49
-56.27
-66.38
-76.79
-87.06
-96.27
-103.29
-107.15
-107.57
-104.87
-100.03
-94.10
-87.82
-81.61
-75.63
-69.98
-64.75
-59.77
-54.60
-48.75
-42.00
-34.75
-27.97
-22.64
-19.27
-17.51
-16.35
-14.81
-12.46
-9.57
-6.84
-4.80
-3.39
-2.14
-0.52
1.60
3.97
6.12
7.79
9.15
10.44
11.91
13.46
14.69
15.14
14.49
12.75
10.16
7.00
3.42
-0.61
-5.19
-10.28
-15.62
-20.68
-24.84
-27.62
-28.79
-28.50
-27.13
-25.11
-22.79
-20.34
-17.90
-15.70
-14.14
-13.59
-14.11
-15.16
-15.80
-15.18
-13.00
-9.87
-6.90
-5.18
-5.20
-6.63
-8.77
-11.07
-13.53
-16.50
-20.21
-24.56
-29.19
-33.83
-38.69
-44.26
-50.73
-57.44
-62.95
-65.63
-64.70
-60.70
-55.35
-50.62
-47.65
-46.25
-45.04
-42.22
-36.38
-26.98
-14.37
0.59
16.84
33.32
49.18
63.78
76.84
88.42
98.95
108.96
118.71
128.00
136.17
142.19
145.06
144.16
139.33
130.92
119.55
105.89
90.59
74.29
57.76
41.92
27.73
15.97
6.97
0.45
-4.40
-8.68
-13.49
-19.57
-27.27
-36.51
-47.06
-58.78
-71.50
-85.20
-99.60
-114.10
-127.77
-139.69
-149.11
-155.55
-158.85
-159.04
-156.46
-151.94
-146.70
-142.19
-139.41
-138.46
-138.35
-137.37
-133.79
-126.71
-116.30
-103.61
-90.01
-76.59
-63.94
-52.27
-41.68
-32.39
-24.68
-18.77
-14.71
-12.43
-11.54
-11.55
-11.91
-12.08
-11.66
-10.48
-8.63
-6.36
-4.01
-1.81
0.16
1.98
3.76
5.45
6.84
7.50
7.06
5.37
2.73
-0.22
-2.69
-4.14
-4.55
-4.45
-4.73
-6.14
-9.02
-13.04
-17.52
-21.78
-25.49
-28.82
-32.07
-35.45
-38.59
-40.70
-40.90
-38.72
-34.38
-28.52
-21.78
-14.37
-6.18
2.86
12.20
20.64
26.65
29.21
28.40
25.41
22.03
19.77
19.28
20.25
21.87
23.47
24.91
26.42
28.36
30.72
33.05
34.67
35.04
33.93
31.74
29.03
26.37
24.11
22.24
20.61
19.03
17.39
15.62
13.61
11.24
8.48
5.45
2.40
-0.47
-3.14
-5.91
-9.18
-13.10
-17.42
-21.35
-23.80
-23.86
-21.15
-15.91
-9.08
-1.77
5.06
10.82
15.37
18.78
21.05
22.20
22.19
21.11
19.35
17.37
15.48
13.67
11.84
10.12
8.95
9.07
10.87
13.94
17.09
18.91
18.51
15.95
12.12
8.16
4.83
2.26
0.27
-1.28
-2.26
-2.39
-1.66
-0.46
0.46
0.48
-0.67
-2.79
-5.59
-8.77
-12.28
-16.13
-20.08
-23.71
-26.41
-27.58
-26.88
-24.19
-19.67
-13.46
-5.75
3.17
12.63
21.56
28.66
32.81
33.58
31.42
27.54
23.41
20.23
18.55
18.25
18.90
19.93
20.98
21.91
22.66
23.21
23.57
23.73
23.70
23.37
22.63
21.44
19.74
17.57
14.95
11.99
8.96
6.34
4.66
4.12
4.42
4.73
4.02
1.55
-2.70
-7.96
-13.12
-17.16
-19.51
-20.10
-19.17
-16.87
-13.31
-8.76
-3.75
1.01
4.83
7.41
8.94
9.83
10.47
11.00
11.30
11.22
10.73
10.03
9.41
9.07
9.00
9.03
8.99
8.87
8.86
9.22
10.12
11.45
12.98
14.39
15.47
16.13
16.38
16.29
15.87
15.14
14.00
12.40
10.40
8.14
5.81
3.60
1.60
-0.34
-2.37
-4.62
-7.04
-9.31
-10.99
-11.72
-11.37
-9.97
-7.50
-3.86
1.02
6.82
12.72
17.48
20.03
19.93
17.70
14.53
11.72
10.04
9.51
9.67
9.99
10.25
10.58
11.25
12.36
13.69
14.84
15.45
15.31
14.40
12.92
11.16
9.38
7.79
6.40
5.08
3.60
1.81
-0.25
-2.30
-3.97
-4.97
-5.27
-5.14
-5.08
-5.63
-7.13
-9.53
-12.36
-14.89
-16.30
-16.01
-13.84
-10.07
-5.38
-0.62
3.44
6.39
8.31
9.66
10.99
12.56
14.31
15.71
16.20
15.49
13.73
11.38
9.02
7.20
6.41
7.04
9.21
12.59
16.21
18.73
18.99
16.58
12.17
7.21
3.25
1.20
1.07
2.11
3.31
4.00
3.94
3.25
2.16
0.80
-0.78
-2.53
-4.40
-6.35
-8.22
-9.89
-11.29
-12.38
-13.24
-13.88
-14.16
-13.83
-12.57
-10.09
-6.43
-1.81
3.31
8.38
12.85
16.28
18.41
19.30
19.29
18.93
18.80
19.12
19.71
20.01
19.43
17.72
15.15
12.44
10.33
9.28
9.27
9.83
10.42
10.57
10.12
9.17
7.88
6.28
4.34
2.10
-0.09
-1.55
-1.69
-0.38
1.78
3.65
4.14
2.79
0.00
-3.20
-5.81
-7.47
-8.50
-9.71
-11.71
-14.53
-17.61
-20.10
-21.30
-20.91
-19.07
-16.11
-12.43
-8.49
-4.59
-0.98
2.14
4.68
6.56
7.63
7.78
6.99
5.48
3.69
2.25
1.73
2.41
4.11
6.28
8.24
9.47
9.81
9.44
8.67
7.72
6.58
5.09
3.04
0.35
-2.76
-5.85
-8.37
-9.85
-10.12
-9.30
-7.87
-6.26
-4.83
-3.82
-3.25
-3.21
-3.93
-5.69
-8.39
-11.44
-13.81
-14.50
-13.14
-10.18
-6.66
-3.61
-1.49
-0.11
1.16
2.81
4.83
6.79
8.18
8.82
8.94
9.05
9.53
10.44
11.47
12.17
12.21
11.52
10.29
9.05
8.36
8.56
9.69
11.38
12.93
13.65
13.16
11.50
9.20
6.97
5.38
4.61
4.40
4.20
3.49
2.05
0.03
-2.13
-3.97
-5.20
-5.77
-5.86
-5.72
-5.63
-5.84
-6.54
-7.83
-9.68
-11.86
-13.93
-15.41
-15.88
-15.24
-13.65
-11.51
-9.26
-7.23
-5.54
-4.06
-2.42
-0.11
3.12
7.07
10.92
13.53
13.88
11.68
7.66
3.23
-0.14
-1.62
-1.34
-0.24
0.63
0.70
0.07
-0.73
-1.19
-1.17
-1.00
-1.15
-1.99
-3.66
-5.93
-8.37
-10.63
-12.43
-13.73
-14.70
-15.58
-16.59
-17.78
-19.02
-20.15
-21.07
-21.77
-22.25
-22.51
-22.46
-22.01
-21.12
-19.78
-18.00
-15.74
-12.88
-9.42
-5.59
-1.91
1.00
2.72
3.23
2.96
2.53
2.40
2.60
3.00
3.37
3.52
3.36
2.85
1.90
0.50
-1.00
-1.88
-1.24
1.46
5.91
10.89
14.74
16.13
14.78
11.48
7.68
4.65
2.85
1.85
0.79
-1.04
-3.75
-6.91
-9.89
-12.22
-13.81
-14.66
-14.71
-13.76
-11.67
-8.47
-4.53
-0.44
3.23
6.17
8.38
10.06
11.34
12.26
12.69
12.59
12.08
11.42
10.90
10.62
10.41
9.94
8.96
7.47
5.81
4.52
4.04
4.45
5.37
6.19
6.34
5.60
4.23
2.70
1.50
0.80
0.39
-0.14
-1.27
-3.20
-5.83
-8.91
-12.19
-15.53
-18.76
-21.47
-23.02
-22.77
-20.49
-16.65
-12.35
-8.78
-6.62
-5.67
-4.98
-3.52
-0.75
3.04
7.02
10.30
12.50
13.82
14.75
15.66
16.62
17.35
17.51
16.95
15.74
14.23
12.79
11.63
10.76
9.95
8.89
7.40
5.51
3.45
1.55
0.00
-1.22
-2.35
-3.71
-5.47
-7.63
-9.94
-12.00
-13.53
-14.45
-14.94
-15.39
-16.17
-17.43
-18.98
-20.31
-20.70
-19.59
-16.76
-12.45
-7.22
-1.92
2.79
6.36
8.61
9.63
9.70
9.08
8.01
6.73
5.63
5.29
6.28
8.68
11.93
14.87
16.25
15.45
12.86
9.70
7.36
6.58
7.10
7.93
8.10
7.21
5.57
3.91
2.75
2.12
1.62
0.74
-0.67
-2.51
-4.37
-5.93
-7.15
-8.24
-9.54
-11.27
-13.35
-15.40
-16.88
-17.23
-16.08
-13.45
-9.67
-5.31
-0.92
3.01
6.21
8.59
10.20
11.13
11.45
11.17
10.21
8.50
6.06
3.17
0.33
-1.87
-2.97
-2.94
-2.27
-1.87
-2.52
-4.71
-8.20
-12.16
-15.70
-18.22
-19.74
-20.65
-21.40
-22.14
-22.77
-23.03
-22.77
-21.87
-20.13
-17.14
-12.50
-6.12
1.39
8.72
14.39
17.40
17.78
16.59
15.34
15.22
16.52
18.80
21.35
23.68
25.82
28.03
30.52
33.02
34.81
35.07
33.24
29.35
23.99
18.03
12.29
7.53
4.39
3.50
5.39
10.26
17.62
26.31
34.84
41.96
47.07
50.26
52.00
52.64
52.20
50.52
47.69
44.32
41.45
40.09
40.68
42.78
45.14
46.03
43.88
37.56
26.77
12.10
-5.05
-22.89
-39.55
-53.39
-63.16
-68.04
-67.70
-62.43
-53.21
-41.66
-29.74
-19.42
-12.10
-8.52
-8.70
-12.22
-18.25
-25.62
-32.77
-37.97
-39.80
-37.62
-31.84
-23.81
-15.23
-7.55
-1.67
2.07
3.90
4.28
3.71
2.64
1.52
0.81
0.87
1.87
3.48
4.98
5.40
4.00
0.70
-3.75
-8.04
-10.90
-11.60
-10.24
-7.50
-4.13
-0.66
2.80
6.21
9.34
11.70
12.74
12.29
10.62
8.37
6.29
4.76
3.52
1.99
-0.60
-4.68
-10.00
-15.71
-20.59
-23.42
-23.42
-20.38
-14.81
-7.99
-1.66
2.28
2.35
-1.88
-9.57
-18.87
-27.59
-34.07
-37.82
-39.46
-40.25
-41.28
-43.01
-45.28
-47.64
-49.78
-51.65
-53.32
-54.78
-55.70
-55.67
-54.11
-50.71
-45.49
-38.77
-31.14
-23.19
-15.36
-7.87
-0.69
6.25
12.86
18.84
23.66
26.94
28.61
29.10
29.19
29.64
30.74
32.20
33.28
33.14
31.32
27.93
23.43
18.32
12.78
6.53
-0.80
-9.16
-17.87
-25.79
-31.84
-35.69
-37.96
-39.91
-42.69
-46.71
-51.39
-55.60
-58.29
-59.18
-59.04
-59.40
-61.90
-67.54
-76.17
-86.46
-96.29
-103.28
-105.43
-101.59
-91.73
-76.90
-58.89
-39.77
-21.29
-4.42
10.75
24.76
38.29
51.76
64.95
76.99
86.83
93.55
96.57
95.83
91.59
84.49
75.53
66.02
57.47
51.25
48.26
48.74
52.24
57.91
64.77
72.04
79.21
85.99
92.10
97.07
100.25
101.05
99.33
95.56
90.62
85.55
81.06
77.26
73.81
70.11
65.70
60.39
54.36
47.96
41.76
36.54
33.01
31.70
32.64
35.37
39.23
43.66
48.34
53.00
56.97
59.16
58.44
54.25
47.14
38.64
30.54
23.86
18.39
13.04
6.86
0.11
-5.47
-7.37
-3.72
5.56
18.42
31.50
41.51
46.47
46.40
42.72
37.42
32.00
26.89
21.70
15.87
9.27
2.47
-3.52
-7.90
-10.47
-11.71
-12.60
-14.06
-16.70
-20.68
-25.80
-31.70
-37.92
-44.08
-49.75
-54.65
-58.60
-61.59
-63.65
-64.80
-65.06
-64.59
-63.63
-62.50
-61.41
-60.23
-58.61
-56.11
-52.49
-47.99
-43.21
-38.86
-35.28
-32.19
-28.82
-24.42
-18.81
-12.70
-7.37
-4.14
-3.66
-5.53
-8.56
-11.29
-12.65
-12.37
-10.91
-9.03
-7.49
-6.81
-7.31
-9.22
-12.69
-17.62
-23.55
-29.53
-34.46
-37.22
-37.18
-34.33
-29.12
-22.09
-13.40
-2.60
11.21
28.59
49.42
72.68
96.36
117.62
133.42
141.11
139.00
126.74
105.34
77.59
47.67
19.95
-2.60
-19.37
-32.07
-43.48
-55.83
-70.22
-85.04
-96.37
-99.61
-91.74
-72.51
-44.25
-11.05
22.66
51.35
71.99
85.09
93.41
99.26
103.14
104.12
100.76
92.14
74.31
46.30
11.92
-22.22
-51.27
-73.83
-91.19
-105.65
-119.21
-139.43
-169.64
-205.91
-239.73
-264.98
-280.57
-288.96
-293.85
-298.65
-314.83
-349.68
-401.43
-461.12
-519.73
-570.64
-609.13
-631.97
-584.65
-448.95
-257.73
-70.32
74.25
169.10
225.35
257.28
275.51
286.10
283.54
265.35
235.52
206.69
188.13
182.17
186.01
195.07
205.21
207.35
196.95
177.17
156.21
140.14
131.20
127.72
126.94
126.42
120.60
106.86
87.43
67.81
52.11
41.65
35.69
32.88
32.02
30.22
25.67
18.54
10.48
2.86
-3.64
-8.63
-11.68
-12.61
-12.55
-12.87
-14.43
-17.19
-20.60
-23.83
-26.09
-26.92
-26.56
-25.91
-26.18
-28.38
-32.68
-38.47
-44.54
-49.60
-52.72
-53.47
-51.87
-48.13
-42.52
-35.20
-26.51
-16.88
-6.85
3.02
12.42
21.35
30.07
38.88
47.68
55.86
62.29
65.79
65.65
62.06
56.15
49.59
43.97
40.21
38.23
37.40
36.92
36.34
35.77
35.36
35.12
34.67
33.33
30.51
26.13
20.78
15.70
12.30
11.41
12.76
15.02
16.26
14.94
10.56
3.95
-3.20
-9.22
-13.17
-15.32
-16.74
-18.64
-21.63
-25.49
-29.32
-32.00
-32.62
-30.74
-26.41
-20.03
-12.34
-4.06
4.14
11.73
18.41
24.00
28.32
31.23
32.64
32.61
31.46
29.69
27.85
26.36
25.35
24.71
24.18
23.52
22.61
21.48
20.22
18.87
17.41
15.76
13.72
11.18
8.12
4.82
1.79
-0.22
-0.53
1.12
4.32
7.95
10.56
10.88
8.39
3.42
-3.07
-9.86
-15.81
-20.05
-22.23
-22.60
-22.01
-21.61
-22.40
-24.60
-27.41
-29.31
-28.72
-24.90
-18.26
-10.20
-2.33
4.35
9.65
14.02
17.93
21.38
23.94
25.09
24.77
23.52
22.43
22.62
24.54
27.81
31.30
33.62
33.83
31.79
28.13
23.82
19.72
16.18
13.19
10.51
7.96
5.54
3.35
1.45
-0.10
-1.27
-1.99
-2.22
-2.14
-2.05
-2.32
-3.19
-4.68
-6.61
-8.76
-11.01
-13.31
-15.60
-17.64
-18.95
-19.00
-17.49
-14.49
-10.55
-6.57
-3.33
-1.18
0.18
1.50
3.40
5.91
8.34
9.53
8.59
5.57
1.38
-2.58
-5.27
-6.52
-6.96
-7.45
-8.47
-9.76
-10.65
-10.61
-9.69
-8.43
-7.53
-7.36
-7.79
-8.41
-8.71
-8.44
-7.53
-6.06
-4.11
-1.76
0.91
3.69
6.31
8.62
10.64
12.64
14.96
17.73
20.56
22.62
22.96
21.04
17.03
11.74
6.30
1.61
-1.69
-3.19
-2.29
1.91
10.45
23.97
42.14
63.63
86.45
108.61
128.83
146.49
161.42
173.32
181.67
185.68
184.87
179.47
170.63
159.96
148.89
137.94
126.45
112.94
95.92
74.71
49.73
22.35
-5.60
-32.55
-57.41
-79.66
-98.95
-114.90
-126.97
-134.73
-138.09
-137.60
-134.38
-129.93
-125.79
-123.20
-122.53
-123.24
-124.12
-123.74
-121.21
-116.67
-111.31
-106.81
-104.55
-105.02
-107.62
-111.10
-114.14
-116.05
-116.80
-116.74
-116.03
-114.41
-111.23
-105.92
-98.39
-89.20
-79.24
-69.32
-59.75
-50.23
-40.07
-28.58
-15.33
-0.10
17.28
37.08
59.69
85.18
112.92
141.38
168.20
190.77
206.99
215.97
218.20
215.17
208.45
199.01
186.87
171.60
153.00
131.70
109.22
87.43
67.78
50.67
35.63
21.74
8.42
-4.31
-15.96
-26.07
-34.74
-42.64
-50.87
-60.41
-71.81
-85.02
-99.27
-113.34
-125.85
-135.56
-141.69
-144.01
-142.82
-138.71
-132.41
-124.60
-115.91
-106.90
-97.90
-88.94
-79.59
-69.05
-56.39
-40.89
-22.38
-1.23
21.74
45.55
69.26
92.01
113.12
132.03
148.46
162.45
174.20
183.93
191.65
196.93
199.29
198.48
194.85
189.55
184.01
179.32
175.44
171.05
163.87
151.35
131.73
104.65
71.33
34.10
-4.22
-41.10
-74.50
-103.06
-126.06
-143.40
-155.67
-164.10
-170.42
-176.44
-183.59
-192.60
-203.38
-215.24
-227.13
-238.10
-247.39
-254.46
-258.71
-259.36
-255.37
-245.73
-229.85
-207.82
-180.57
-149.48
-116.13
-82.00
-48.30
-16.02
14.21
42.19
68.23
92.98
117.13
141.02
164.37
186.47
206.39
223.26
236.34
244.84
247.98
245.19
236.51
222.90
206.16
188.32
171.10
155.47
141.67
129.34
117.98
107.12
96.32
85.13
73.17
60.42
47.32
34.88
24.16
15.81
9.71
4.96
0.29
-5.21
-11.78
-18.85
-25.48
-30.86
-34.66
-37.00
-38.20
-38.46
-37.77
-36.19
-33.98
-31.67
-29.96
-29.36
-30.00
-31.74
-34.14
-36.82
-39.49
-42.06
-44.59
-47.07
-49.51
-51.88
-54.05
-55.98
-57.69
-59.25
-60.75
-62.29
-63.96
-65.56
-66.62
-66.50
-64.57
-60.60
-54.88
-48.25
-41.74
-36.29
-32.38
-30.00
-28.82
-28.32
-28.11
-27.91
-27.56
-26.98
-26.12
-25.01
-23.71
-22.40
-21.29
-20.64
-20.72
-21.53
-22.51
-22.69
-21.12
-17.50
-12.56
-7.89
-5.12
-5.08
-7.29
-10.35
-12.71
-13.64
-13.42
-12.98
-13.11
-14.03
-15.42
-16.88
-18.37
-20.23
-22.84
-26.12
-29.43
-31.78
-32.14
-29.93
-25.20
-18.61
-11.21
-4.16
1.58
5.43
7.35
7.75
7.26
6.47
5.73
5.12
4.56
4.05
3.61
3.36
3.44
3.84
4.56
5.56
6.88
8.66
10.94
13.56
16.05
17.82
18.36
17.59
15.87
13.77
11.86
10.32
8.97
7.51
5.68
3.43
0.78
-2.18
-5.35
-8.61
-11.81
-14.77
-17.43
-19.78
-21.94
-23.78
-24.98
-25.08
-23.92
-21.87
-19.79
-18.64
-18.97
-20.64
-22.93
-25.00
-26.33
-26.78
-26.46
-25.44
-23.56
-20.66
-16.63
-11.70
-6.44
-1.49
2.58
5.52
7.39
8.51
9.29
10.15
11.28
12.55
13.53
13.59
12.22
9.25
5.08
0.54
-3.38
-5.88
-6.63
-5.83
-4.19
-2.50
-1.47
-1.39
-1.98
-2.47
-1.90
0.50
5.06
11.42
18.88
26.62
33.90
40.21
45.09
48.10
48.86
47.48
44.81
42.35
41.58
43.21
46.64
50.28
52.26
51.57
48.44
44.18
40.37
37.97
36.92
36.51
35.96
35.10
34.34
34.30
35.20
36.58
37.46
36.86
34.30
29.96
24.57
19.03
13.95
9.49
5.45
1.42
-3.06
-8.24
-14.15
-20.48
-26.56
-31.42
-34.19
-34.45
-32.58
-29.52
-26.31
-23.59
-21.20
-18.61
-15.28
-11.24
-7.23
-4.29
-3.24
-4.12
-6.26
-8.51
-9.88
-9.83
-8.47
-6.42
-4.36
-2.85
-2.13
-2.07
-2.37
-2.74
-3.18
-3.75
-4.41
-4.78
-4.36
-2.87
-0.63
1.34
1.81
-0.06
-4.15
-9.41
-14.40
-18.12
-20.41
-21.93
-23.64
-26.07
-29.05
-31.80
-33.34
-32.96
-30.45
-26.22
-21.01
-15.76
-11.03
-6.97
-3.25
0.61
4.76
8.86
12.14
13.90
13.97
13.02
12.27
12.93
15.63
20.23
25.96
31.92
37.50
42.46
46.75
50.23
52.58
53.44
52.61
50.18
46.46
41.76
36.29
30.22
23.73
17.17
11.03
5.67
1.28
-2.32
-5.52
-8.69
-12.12
-15.96
-20.29
-25.06
-29.91
-34.07
-36.56
-36.60
-33.97
-29.32
-23.79
-18.61
-14.50
-11.54
-9.29
-7.24
-5.15
-3.19
-1.68
-0.73
-0.15
0.49
1.50
2.86
4.17
4.99
5.12
4.71
4.43
4.89
6.33
8.41
10.22
10.67
8.94
4.67
-1.90
-9.97
-18.59
-26.87
-34.27
-40.74
-46.74
-53.08
-60.60
-69.75
-80.26
-91.07
-100.48
-106.59
-107.87
-103.66
-94.48
-81.83
-67.48
-52.75
-38.07
-23.12
-7.31
9.56
26.81
42.67
54.74
60.93
60.21
53.05
41.31
28.23
18.09
15.00
21.43
37.27
59.97
85.67
110.45
131.28
146.72
157.27
163.68
165.99
163.40
155.26
142.18
126.14
109.51
94.55
83.36
76.32
71.58
65.58
54.43
35.58
8.40
-26.63
-67.93
-112.52
-153.28
-180.42
-188.30
-179.96
-163.14
-144.01
-125.52
-112.38
-101.40
-90.65
-80.38
-72.34
-68.23
-68.48
-69.22
-68.58
-65.65
-59.70
-51.50
-42.69
-35.24
-30.59
-28.73
-28.49
-28.80
-28.43
-25.83
-20.92
-14.74
-9.20
-6.19
-6.35
-9.00
-13.05
-17.23
-20.14
-21.10
-19.83
-16.31
-10.84
-4.10
2.66
7.68
9.65
8.46
4.98
0.59
-3.55
-7.00
-9.79
-11.91
-13.01
-12.24
-8.81
-2.82
4.55
11.52
16.52
19.01
19.55
19.50
20.36
23.04
27.69
33.88
40.96
48.40
55.87
63.07
69.62
74.94
78.35
79.28
77.45
73.04
66.64
59.25
52.04
46.13
42.23
40.51
40.45
41.07
41.19
39.95
37.11
33.03
28.51
24.26
20.57
17.26
13.72
9.49
4.35
-1.53
-7.75
-14.08
-20.61
-27.70
-35.56
-43.91
-51.96
-58.76
-63.77
-67.23
-70.02
-73.06
-76.81
-81.04
-85.14
-88.60
-91.36
-93.51
-94.96
-94.97
-92.27
-85.57
-74.29
-58.87
-40.69
-21.41
-2.55
14.91
30.21
42.96
52.93
60.18
65.19
68.72
71.56
74.13
76.37
78.08
79.21
80.06
81.19
83.00
85.40
87.72
88.95
88.36
85.71
81.38
75.99
70.16
64.08
57.53
50.02
40.95
29.95
17.05
2.84
-11.56
-24.83
-35.77
-43.93
-49.51
-53.23
-55.79
-57.58
-58.55
-58.47
-57.20
-54.72
-50.96
-45.71
-38.83
-30.65
-22.37
-15.84
-12.78
-13.87
-18.02
-22.72
-25.14
-23.47
-17.66
-9.24
-0.35
7.32
13.20
17.61
21.17
24.10
26.06
26.46
24.90
21.49
16.94
12.14
7.84
4.41
1.80
-0.35
-2.43
-4.79
-7.49
-10.37
-13.04
-15.12
-16.47
-17.50
-19.01
-22.08
-27.46
-34.99
-43.49
-51.08
-55.85
-56.67
-53.46
-47.02
-38.45
-28.49
-17.38
-5.18
7.78
20.58
31.89
40.42
45.71
48.24
49.22
50.05
51.60
53.90
56.29
57.90
58.20
57.18
55.18
52.40
48.65
43.35
36.04
26.78
16.36
6.10
-2.81
-9.69
-14.63
-18.10
-20.59
-22.26
-23.01
-22.80
-21.89
-20.89
-20.54
-21.32
-23.15
-25.60
-27.90
-29.31
-29.39
-28.07
-25.63
-22.57
-19.40
-16.53
-14.19
-12.37
-10.95
-9.72
-8.34
-6.44
-3.69
0.00
4.40
8.91
12.96
16.24
18.93
21.54
24.51
27.74
30.46
31.51
29.96
25.68
19.44
12.61
6.42
1.41
-2.57
-6.16
-9.85
-13.68
-17.25
-20.11
-21.99
-22.82
-22.69
-21.54
-19.30
-16.06
-12.24
-8.55
-5.71
-4.21
-4.10
-5.11
-6.87
-9.03
-11.35
-13.56
-15.25
-15.97
-15.41
-13.48
-10.38
-6.29
-1.22
4.82
11.71
18.71
24.85
29.18
31.32
31.68
31.11
30.35
29.47
27.97
25.09
20.57
14.98
9.40
4.80
1.43
-1.23
-4.10
-7.65
-11.65
-15.18
-17.26
-17.50
-16.35
-14.94
-14.44
-15.55
-18.15
-21.40
-24.16
-25.48
-24.94
-22.62
-19.04
-14.76
-10.22
-5.79
-1.75
1.42
3.15
3.01
1.07
-1.87
-4.48
-5.41
-3.92
-0.19
4.73
9.55
13.19
15.24
15.89
15.63
15.01
14.49
14.34
14.61
15.07
15.19
14.22
11.60
7.30
1.85
-3.80
-8.78
-12.81
-16.09
-19.19
-22.56
-26.21
-29.77
-32.53
-33.84
-33.21
-30.49
-25.87
-19.82
-13.05
-6.38
-0.55
3.87
6.57
7.45
6.76
5.04
3.14
1.99
2.23
4.10
7.34
11.58
16.75
23.12
31.09
40.52
50.40
58.82
63.61
63.26
57.40
46.86
33.15
17.83
2.13
-12.98
-26.31
-36.45
-42.02
-42.41
-38.34
-31.94
-25.84
-22.10
-21.30
-22.43
-23.58
-23.08
-20.34
-15.94
-11.20
-7.36
-4.99
-3.98
-3.81
-4.00
-4.31
-4.70
-5.16
-5.56
-5.82
-5.78
-5.21
-3.82
-1.13
3.30
9.58
17.31
25.55
33.10
38.87
42.36
43.69
43.42
42.14
40.02
36.80
31.93
25.15
16.66
7.29
-1.85
-9.81
-16.18
-21.13
-25.20
-28.78
-31.84
-33.93
-34.54
-33.50
-31.24
-28.73
-26.86
-26.26
-26.82
-27.92
-28.78
-28.80
-27.76
-25.59
-22.15
-17.20
-10.54
-2.29
7.03
16.70
26.01
34.44
41.64
47.36
51.35
53.46
53.77
52.64
50.59
48.02
45.03
41.36
36.61
30.59
23.53
16.07
9.12
3.51
-0.11
-1.45
-0.64
1.86
5.29
8.81
11.75
13.73
14.74
15.03
15.04
15.15
15.50
15.92
15.91
14.96
12.80
9.71
6.53
4.34
4.00
5.77
9.09
12.85
15.58
16.01
13.48
8.15
1.06
-6.13
-11.89
-15.67
-18.16
-21.06
-26.16
-34.15
-44.34
-54.90
-63.92
-70.23
-73.63
-74.58
-73.50
-70.53
-65.65
-59.11
-51.71
-44.61
-38.92
-35.31
-34.03
-35.05
-38.27
-43.55
-50.52
-58.36
-65.93
-72.01
-75.61
-76.10
-73.40
-67.92
-60.59
-52.64
-45.16
-38.95
-34.33
-31.07
-28.69
-26.64
-24.58
-22.22
-19.28
-15.16
-9.13
-0.65
10.51
24.48
41.15
60.08
80.46
101.31
121.63
140.51
157.13
170.81
181.59
189.68
194.79
195.97
192.26
183.35
169.74
152.42
132.43
111.81
92.43
74.44
56.04
34.75
8.78
-22.45
-58.49
-98.06
-137.29
-171.53
-197.96
-216.61
-228.78
-235.11
-234.74
-225.75
-205.99
-171.22
-117.65
-45.59
39.78
130.95
221.37
306.97
385.78
437.70
445.15
406.42
338.29
262.61
193.43
135.19
87.06
46.59
14.63
-9.93
-25.54
-31.62
-30.53
-26.06
-21.41
-18.40
-17.97
-20.10
-22.78
-23.08
-20.05
-15.63
-13.02
-14.55
-20.92
-31.41
-44.62
-57.92
-68.27
-74.46
-77.71
-80.19
-83.37
-87.31
-90.94
-92.96
-92.14
-87.87
-80.98
-73.38
-66.87
-62.19
-59.03
-56.69
-54.72
-52.83
-50.53
-47.21
-42.31
-35.68
-27.75
-19.61
-12.59
-7.63
-4.85
-3.53
-2.73
-1.76
-0.49
0.71
1.35
1.12
-0.01
-1.88
-4.36
-7.27
-10.42
-13.56
-16.39
-18.80
-20.79
-22.53
-24.25
-26.03
-27.80
-29.35
-30.37
-30.63
-30.19
-29.30
-28.35
-27.73
-27.57
-27.77
-27.98
-27.89
-27.36
-26.50
-25.53
-24.69
-23.98
-23.12
-21.75
-19.60
-16.69
-13.42
-10.33
-7.95
-6.48
-5.82
-5.62
-5.55
-5.41
-5.26
-5.26
-5.47
-5.90
-6.51
-7.24
-7.99
-8.52
-8.50
-7.69
-6.18
-4.49
-3.36
-3.26
-4.03
-4.84
-4.62
-2.69
0.76
4.79
8.21
10.26
10.88
10.46
9.46
8.08
6.23
3.90
1.39
-0.72
-1.95
-2.14
-1.52
-0.60
0.21
0.72
0.95
0.91
0.54
-0.36
-1.90
-3.96
-6.19
-8.23
-9.85
-11.18
-12.56
-14.32
-16.56
-18.94
-20.93
-22.11
-22.48
-22.56
-23.15
-24.76
-27.21
-29.52
-30.29
-28.43
-23.69
-16.88
-9.48
-2.84
2.25
5.81
8.35
10.32
11.80
12.51
12.19
10.98
9.46
8.44
8.45
9.40
10.55
10.96
9.99
7.59
4.38
1.20
-1.30
-2.96
-4.13
-5.37
-7.04
-9.20
-11.60
-13.86
-15.77
-17.36
-18.87
-20.61
-22.81
-25.41
-28.10
-30.36
-31.54
-31.22
-29.18
-25.61
-21.05
-16.08
-11.26
-6.89
-2.96
0.68
4.12
7.20
9.49
10.49
9.91
7.96
5.37
3.21
2.44
3.54
6.30
9.86
13.12
15.26
16.15
16.33
16.78
18.37
21.34
25.33
29.47
32.88
35.06
36.02
36.17
36.08
36.34
37.45
39.83
43.58
48.22
52.75
55.75
56.00
52.98
47.29
40.37
34.01
29.70
28.03
28.62
30.41
32.18
32.92
32.24
30.27
27.50
24.44
21.40
18.31
14.83
10.74
5.99
0.90
-3.97
-8.18
-11.53
-14.14
-16.45
-19.01
-22.26
-26.30
-30.82
-35.12
-38.45
-40.27
-40.51
-39.58
-38.18
-37.01
-36.47
-36.58
-37.07
-37.59
-37.88
-37.95
-38.05
-38.48
-39.52
-41.25
-43.60
-46.33
-49.11
-51.35
-52.34
-51.08
-46.49
-37.95
-25.68
-10.95
4.30
18.24
29.86
39.26
47.19
54.34
60.75
65.81
68.58
68.55
65.82
61.08
55.07
48.07
39.86
29.98
18.18
4.69
-9.72
-23.93
-36.67
-46.84
-53.74
-57.22
-57.84
-56.58
-54.62
-52.95
-52.10
-52.15
-52.80
-53.65
-54.38
-54.93
-55.36
-55.74
-56.07
-56.17
-55.89
-55.31
-54.67
-54.30
-54.32
-54.26
-53.00
-49.12
-41.59
-30.38
-16.71
-2.64
9.82
19.49
26.38
31.37
35.51
39.34
42.58
44.67
45.10
44.00
42.13
40.43
39.64
39.89
40.89
42.22
43.55
44.82
45.97
46.94
47.44
47.19
45.94
43.69
40.60
36.87
32.64
27.95
22.87
17.51
12.15
7.08
2.52
-1.46
-4.99
-8.26
-11.52
-14.96
-18.63
-22.12
-24.76
-25.56
-23.66
-18.70
-11.04
-1.78
7.60
15.82
22.15
26.54
29.41
31.23
32.22
32.36
31.48
29.66
27.30
25.03
23.45
22.78
22.83
23.19
23.45
23.41
23.08
22.61
22.21
22.03
22.13
22.44
22.59
22.12
20.51
17.45
13.12
8.07
3.09
-1.17
-4.29
-6.17
-6.88
-6.69
-6.13
-5.98
-7.15
-10.33
-15.47
-21.60
-27.10
-30.30
-29.99
-25.90
-18.67
-9.45
0.41
9.73
17.65
23.65
27.60
29.70
30.40
30.20
29.48
28.59
27.76
27.22
27.14
27.49
28.06
28.46
28.38
27.69
26.56
25.27
24.16
23.40
23.03
22.86
22.58
21.90
20.59
18.64
16.31
13.99
12.09
10.73
9.62
8.18
5.91
2.67
-1.09
-4.47
-6.53
-6.80
-5.51
-3.47
-1.92
-1.95
-4.08
-8.12
-13.10
-17.58
-19.91
-18.57
-12.64
-2.20
11.42
25.82
38.16
46.03
48.23
45.12
38.26
29.57
20.66
12.39
5.06
-1.22
-6.24
-9.72
-11.52
-12.01
-11.89
-11.93
-12.50
-13.41
-14.15
-14.07
-12.93
-10.99
-8.91
-7.44
-7.11
-8.03
-9.90
-12.21
-14.37
-15.98
-16.88
-17.12
-16.98
-16.84
-17.13
-18.13
-19.84
-21.98
-24.00
-25.29
-25.42
-24.39
-22.63
-20.90
-19.97
-20.30
-21.75
-23.64
-24.89
-24.48
-21.86
-17.06
-10.76
-3.90
2.61
8.10
12.12
14.42
14.93
14.01
12.35
10.80
10.03
10.21
10.87
11.24
10.68
9.09
6.96
5.08
4.10
4.24
5.27
6.78
8.43
10.05
11.53
12.68
13.19
12.72
11.05
8.29
4.74
0.96
-2.61
-5.71
-8.34
-10.69
-12.98
-15.31
-17.71
-20.13
-22.49
-24.75
-26.77
-28.29
-28.92
-28.30
-26.24
-22.81
-18.35
-13.29
-8.06
-2.98
1.74
5.92
9.36
11.81
13.14
13.32
12.57
11.28
10.00
9.18
9.00
9.53
10.55
11.77
12.98
13.99
14.62
14.66
14.07
13.04
12.14
11.89
12.54
13.70
14.43
13.81
11.45
7.81
3.94
0.86
-1.19
-2.88
-5.33
-9.45
-15.21
-21.72
-27.75
-32.35
-35.30
-36.79
-37.01
-35.69
-32.30
-26.32
-17.97
-8.33
0.90
8.05
12.18
13.37
12.51
10.75
9.04
7.71
6.59
5.32
3.71
1.88
0.23
-0.76
-0.86
-0.22
0.69
1.24
0.98
-0.25
-2.25
-4.63
-7.01
-9.21
-11.11
-12.67
-13.84
-14.49
-14.62
-14.37
-14.28
-15.08
-17.40
-21.44
-26.70
-32.11
-36.31
-38.10
-36.86
-32.76
-26.58
-19.41
-12.22
-5.56
0.41
5.80
10.70
15.03
18.48
20.77
21.81
21.73
20.99
20.09
19.40
18.86
18.00
16.24
13.24
9.13
4.54
0.42
-2.47
-3.90
-4.27
-4.36
-4.90
-6.15
-7.86
-9.50
-10.61
-11.24
-11.81
-12.91
-14.85
-17.38
-19.74
-20.93
-20.16
-17.13
-12.22
-6.21
0.04
5.91
11.04
15.22
18.23
19.83
19.78
18.16
15.46
12.50
10.18
9.19
9.64
11.04
12.61
13.45
13.01
11.25
8.71
6.30
4.96
5.10
6.43
7.95
8.40
6.87
3.24
-1.81
-7.20
-11.97
-15.68
-18.50
-20.77
-22.69
-24.00
-24.09
-22.31
-18.45
-12.78
-6.05
0.77
6.88
11.73
15.19
17.31
18.13
17.64
15.84
12.87
9.19
5.54
2.71
1.25
1.17
2.03
3.11
3.79
3.82
3.33
2.72
2.34
2.36
2.56
2.57
2.01
0.64
-1.50
-4.13
-6.79
-9.07
-10.71
-11.57
-11.50
-10.30
-7.75
-3.65
1.78
7.89
13.62
17.82
19.68
19.08
16.71
13.95
12.28
12.57
14.70
17.53
19.41
19.14
16.50
12.39
8.29
5.46
4.25
4.12
4.07
3.37
1.90
0.10
-1.51
-2.69
-3.70
-4.93
-6.65
-8.75
-10.85
-12.50
-13.53
-14.03
-14.43
-15.18
-16.54
-18.42
-20.30
-21.41
-20.93
-18.44
-14.10
-8.61
-2.96
2.01
5.86
8.70
10.92
12.95
14.96
16.79
18.09
18.53
18.00
16.58
14.67
12.79
11.51
11.33
12.52
15.12
18.73
22.73
26.21
28.33
28.55
26.89
24.02
21.14
19.66
20.72
24.65
30.63
36.80
40.77
40.51
35.18
25.39
12.94
0.07
-11.42
-20.60
-27.33
-31.89
-34.53
-35.24
-33.98
-30.92
-26.65
-21.98
-17.65
-14.07
-11.30
-9.25
-7.76
-6.75
-6.20
-5.96
-5.85
-5.67
-5.31
-4.79
-4.24
-3.73
-3.29
-2.86
-2.32
-1.55
-0.34
1.59
4.60
9.00
14.77
21.47
28.17
33.71
37.00
37.35
34.54
28.93
21.30
12.73
4.43
-2.51
-7.26
-9.64
-9.93
-8.93
-7.58
-6.75
-7.04
-8.77
-12.08
-16.75
-22.14
-27.28
-31.27
-33.81
-35.46
-37.48
-41.18
-47.11
-54.63
-62.06
-67.42
-69.37
-67.80
-63.80
-59.07
-55.13
-52.69
-51.44
-50.22
-47.41
-41.36
-30.84
-15.29
4.85
28.30
53.11
76.96
97.61
113.22
122.71
125.75
122.74
114.62
102.74
88.61
73.79
59.60
46.92
36.02
26.57
17.91
9.41
0.82
-7.70
-15.60
-22.33
-27.63
-31.57
-34.55
-37.08
-39.62
-42.46
-45.68
-49.09
-52.28
-54.88
-56.61
-57.69
-58.74
-60.65
-64.13
-69.47
-76.27
-83.66
-90.58
-96.20
-100.23
-103.05
-105.48
-108.39
-112.28
-116.99
-121.86
-126.04
-129.03
-131.03
-132.81
-135.33
-139.09
-143.81
-148.46
-151.67
-152.04
-148.36
-139.61
-124.94
-103.78
-76.18
-42.96
-5.83
32.86
70.64
105.32
135.39
160.13
179.52
194.08
204.63
211.97
216.69
219.09
219.18
216.76
211.61
203.57
192.68
179.33
164.39
149.12
134.86
122.62
112.68
104.51
97.08
89.48
81.49
73.66
67.05
62.57
60.41
59.93
59.86
58.76
55.54
49.56
40.82
29.87
17.84
6.33
-3.03
-9.12
-11.73
-11.68
-10.34
-8.86
-7.68
-6.51
-4.80
-2.44
-0.11
1.12
0.40
-2.26
-5.89
-9.02
-10.52
-10.27
-9.10
-8.27
-8.64
-10.08
-11.64
-11.97
-10.16
-6.15
-0.77
4.66
8.93
11.37
11.97
11.14
9.51
7.57
5.67
3.88
2.14
0.24
-2.09
-5.01
-8.40
-11.79
-14.51
-15.98
-15.91
-14.62
-12.81
-11.39
-11.08
-12.15
-14.33
-17.12
-19.99
-22.59
-24.82
-26.58
-27.74
-28.03
-27.22
-25.33
-22.81
-20.34
-18.44
-17.11
-15.83
-14.01
-11.61
-9.35
-8.46
-9.87
-13.49
-18.13
-22.02
-23.77
-23.08
-20.76
-18.13
-16.25
-15.31
-14.77
-13.91
-12.36
-10.32
-8.39
-7.12
-6.73
-7.16
-8.07
-9.19
-10.44
-11.90
-13.72
-15.95
-18.43
-20.91
-23.21
-25.32
-27.47
-29.92
-32.73
-35.62
-38.02
-39.40
-39.56
-38.81
-37.76
-37.04
-36.90
-36.96
-36.46
-34.50
-30.50
-24.40
-16.79
-8.74
-1.59
3.30
4.66
1.52
-6.35
-18.10
-31.42
-42.70
-48.05
-44.60
-31.73
-11.37
12.70
36.36
56.47
71.59
81.60
87.08
88.59
86.55
81.52
74.56
67.23
61.03
56.81
54.56
53.49
52.56
50.98
48.43
45.01
41.12
37.21
33.76
31.18
29.65
29.15
29.40
29.92
30.30
30.25
29.78
29.25
29.41
31.37
36.43
45.71
59.60
77.25
96.47
114.19
127.27
133.49
132.16
124.05
110.84
94.33
75.90
56.28
35.79
14.70
-6.57
-27.31
-46.65
-63.69
-77.67
-88.04
-94.67
-97.77
-98.01
-96.33
-93.78
-91.40
-89.99
-90.00
-91.31
-93.23
-94.64
-94.49
-92.29
-88.39
-83.91
-80.05
-77.53
-76.17
-75.11
-73.41
-70.77
-67.71
-65.22
-64.09
-64.26
-64.85
-64.57
-62.49
-58.42
-52.93
-46.86
-40.80
-34.95
-29.11
-23.17
-17.35
-12.25
-8.64
-7.08
-7.65
-9.81
-12.73
-15.43
-17.20
-17.69
-16.96
-15.40
-13.45
-11.49
-9.51
-7.21
-4.06
0.37
6.13
12.94
20.19
27.27
33.72
39.29
43.87
47.39
49.75
50.78
50.38
48.44
45.08
40.51
35.04
29.02
22.70
16.13
9.27
2.21
-4.58
-10.17
-13.51
-13.85
-11.16
-6.20
-0.19
5.69
10.66
14.45
17.08
18.58
18.96
18.15
16.18
13.22
9.55
5.42
1.08
-3.26
-7.32
-10.69
-12.86
-13.44
-12.05
-8.56
-3.15
3.64
10.86
17.43
22.46
25.53
26.86
27.02
26.40
25.03
22.48
18.24
12.17
4.69
-3.30
-10.83
-17.31
-22.77
-27.85
-33.45
-40.47
-49.38
-60.08
-71.76
-83.09
-92.39
-98.22
-99.70
-96.88
-90.78
-83.02
-75.35
-69.19
-65.29
-63.80
-64.45
-66.72
-69.91
-73.09
-75.16
-75.18
-72.73
-68.27
-62.97
-58.20
-54.93
-53.23
-52.40
-51.55
-50.26
-48.89
-48.25
-48.90
-50.61
-52.31
-52.66
-50.87
-47.11
-42.49
-38.39
-35.59
-33.84
-31.68
-27.11
-18.43
-4.76
13.56
35.36
59.10
83.41
107.21
129.71
150.08
167.44
180.81
189.42
192.95
191.61
185.93
176.56
164.00
148.58
130.75
111.27
91.40
72.74
56.77
44.28
35.16
28.53
23.20
18.42
14.08
10.58
8.50
7.91
8.24
8.41
7.36
4.55
0.32
-4.32
-8.19
-10.62
-12.00
-13.78
-17.94
-26.08
-38.67
-54.66
-71.79
-87.44
-99.46
-106.73
-109.20
-107.38
-101.97
-93.65
-83.09
-71.19
-59.12
-48.01
-38.72
-31.49
-25.97
-21.57
-17.67
-14.01
-10.68
-7.99
-6.26
-5.66
-6.09
-7.25
-8.59
-9.47
-9.28
-7.72
-4.89
-1.33
2.15
4.77
6.09
6.16
5.39
4.31
3.24
2.22
1.07
-0.31
-1.71
-2.56
-2.16
0.04
4.11
9.69
16.02
22.18
27.33
30.73
31.88
30.62
27.14
22.10
16.49
11.49
8.17
7.28
8.93
12.58
17.17
21.41
24.29
25.35
24.72
23.13
21.30
19.68
18.30
16.94
15.43
13.85
12.50
11.66
11.37
11.30
10.90
9.71
7.54
4.49
1.08
-2.06
-4.29
-5.09
-4.25
-1.83
1.85
6.31
11.05
15.66
19.89
23.64
26.87
29.50
31.35
32.23
32.05
31.02
29.67
28.68
28.68
29.86
31.89
34.05
35.46
35.59
34.36
32.22
29.80
27.56
25.61
23.65
21.34
18.45
15.04
11.42
7.85
4.42
0.99
-2.43
-5.52
-7.67
-8.31
-7.37
-5.56
-4.11
-4.03
-5.59
-7.99
-9.84
-9.85
-7.65
-3.81
0.49
4.25
7.11
9.39
11.60
13.87
15.83
16.80
16.29
14.39
11.73
9.33
7.97
7.97
9.11
10.76
12.23
13.00
12.86
11.90
10.49
9.01
7.78
6.91
6.24
5.50
4.47
3.05
1.37
-0.29
-1.66
-2.52
-2.91
-3.07
-3.43
-4.42
-6.27
-8.84
-11.56
-13.58
-14.09
-12.71
-9.66
-5.60
-1.45
2.05
4.57
6.10
6.86
7.03
6.79
6.44
6.37
6.95
8.27
10.02
11.58
12.38
12.27
11.65
11.28
11.79
13.32
15.44
17.33
18.37
18.35
17.63
16.88
16.65
17.14
18.14
19.12
19.52
19.02
17.73
16.11
14.72
13.88
13.50
13.08
11.93
9.64
6.18
1.88
-2.74
-7.26
-11.33
-14.63
-16.68
-17.05
-15.47
-12.14
-7.81
-3.51
-0.14
1.89
2.70
2.66
1.95
0.46
-2.10
-5.76
-10.06
-14.11
-17.09
-18.75
-19.51
-20.35
-22.14
-25.23
-29.30
-33.72
-37.83
-41.22
-43.68
-45.00
-45.06
-44.03
-42.56
-41.80
-42.74
-45.69
-50.02
-54.37
-57.50
-59.12
-60.02
-61.65
-65.18
-70.74
-77.37
-83.55
-87.91
-89.73
-88.82
-85.13
-78.37
-68.31
-54.97
-39.16
-22.44
-6.62
6.85
17.25
24.55
28.95
30.43
28.73
23.79
16.33
8.12
1.55
-1.25
0.72
6.94
15.62
24.60
32.21
37.81
41.67
44.51
46.86
48.78
49.97
50.14
49.34
48.06
46.96
46.74
47.64
49.58
52.13
54.84
57.46
59.97
62.45
64.99
67.61
70.33
73.12
75.74
77.66
78.15
76.52
72.59
66.94
60.74
55.19
50.93
47.70
44.62
40.83
36.16
31.27
27.30
25.15
25.00
26.38
28.56
31.05
33.88
37.22
41.27
45.80
50.19
53.66
55.59
55.53
53.25
48.46
40.70
29.50
14.62
-3.69
-24.44
-46.16
-67.19
-86.25
-102.68
-116.46
-127.88
-137.19
-144.24
-148.55
-149.71
-147.62
-142.73
-135.72
-127.03
-116.51
-103.48
-87.20
-67.55
-45.57
-23.25
-2.99
13.38
25.25
33.20
38.52
42.47
46.01
49.76
54.21
59.73
66.34
73.39
79.74
84.03
85.38
83.78
80.02
75.16
70.05
65.03
60.13
55.53
51.81
49.66
49.54
51.16
53.51
55.19
55.02
52.43
47.61
41.47
35.25
30.21
27.50
27.53
29.90
33.56
37.07
38.87
37.66
32.50
23.15
10.24
-5.12
-21.53
-37.37
-50.82
-60.03
-63.17
-59.01
-46.96
-27.05
-0.80
28.97
58.92
85.55
105.72
117.01
117.39
106.88
88.56
65.92
42.03
18.98
-2.78
-24.36
-47.55
-75.20
-107.77
-141.21
-172.13
-198.86
-220.94
-239.56
-257.08
-276.00
-300.18
-329.93
-358.86
-381.65
-395.31
-397.89
-389.19
-370.85
-345.67
-319.94
-297.27
-273.76
-246.97
-216.05
-179.43
-136.15
-87.06
-15.13
78.50
155.41
203.97
229.97
237.22
231.73
220.66
210.69
206.16
204.38
200.86
195.08
184.18
165.95
143.26
122.79
111.88
115.20
130.34
152.29
178.77
205.31
226.74
239.68
241.93
232.30
211.04
178.74
138.87
98.83
63.90
35.86
14.41
-2.62
-18.12
-34.85
-55.60
-81.37
-109.99
-138.09
-161.44
-175.46
-177.06
-166.12
-145.70
-121.15
-97.62
-77.89
-62.52
-50.51
-40.34
-31.19
-23.21
-17.03
-12.99
-10.66
-9.12
-7.63
-6.18
-5.50
-6.49
-9.25
-12.50
-13.78
-10.13
0.67
19.13
43.75
71.35
98.06
120.23
135.47
143.17
144.62
142.51
139.90
138.86
139.39
139.15
134.46
122.01
100.66
72.29
41.16
12.19
-10.94
-26.92
-36.52
-41.61
-43.80
-43.90
-42.12
-38.79
-35.00
-32.55
-33.41
-38.78
-48.58
-61.32
-74.79
-87.05
-97.09
-105.06
-111.77
-117.90
-123.37
-127.30
-128.52
-126.29
-120.81
-113.07
-104.42
-95.96
-88.21
-81.18
-74.66
-68.44
-62.43
-56.45
-50.02
-42.42
-32.84
-20.74
-6.04
10.85
29.20
48.29
67.52
86.58
105.13
122.46
137.34
148.16
153.39
152.16
144.69
132.34
117.21
101.58
87.45
76.40
69.60
67.59
70.10
75.86
82.68
88.00
89.66
86.46
78.55
67.13
53.81
40.02
26.70
14.42
3.46
-6.26
-15.48
-25.19
-36.37
-49.56
-64.71
-81.06
-97.24
-111.82
-123.65
-132.30
-137.13
-137.14
-131.28
-119.34
-102.58
-83.70
-66.22
-53.41
-47.47
-47.95
-52.02
-55.61
-55.16
-48.68
-35.69
-16.81
9.30
40.60
72.56
100.40
122.09
137.52
147.15
151.12
149.23
141.34
127.34
108.39
86.66
65.44
47.71
35.51
29.45
28.52
30.22
31.27
29.23
21.87
9.35
-6.92
-24.26
-38.62
-45.20
-40.53
-23.77
4.07
33.60
53.91
56.64
39.61
7.75
-29.01
-60.78
-82.56
-92.11
-91.65
-84.96
-75.57
-65.62
-55.83
-46.37
-38.59
-34.02
-33.67
-38.65
-49.00
-63.91
-82.27
-103.62
-122.88
-141.02
-159.05
-175.11
-184.77
-181.99
-162.16
-125.20
-76.47
-24.99
19.39
50.99
70.16
81.17
88.47
95.18
102.57
110.72
119.51
128.59
138.37
149.64
161.81
173.38
182.95
189.79
194.60
199.32
206.31
213.62
220.31
224.08
221.10
206.96
177.71
131.29
68.84
-5.02
-82.40
-153.32
-209.03
-244.16
-257.71
-252.67
-234.50
-209.19
-181.89
-156.28
-134.25
-116.84
-104.61
-97.33
-93.77
-91.88
-89.27
-84.06
-75.65
-64.63
-52.75
-41.98
-33.39
-26.92
-21.66
-16.64
-11.62
-7.25
-4.44
-3.71
-4.75
-6.38
-7.25
-6.64
-4.71
-2.23
0.28
3.04
7.06
13.52
23.07
35.40
49.35
63.55
76.92
88.86
99.30
108.26
115.44
120.16
121.36
118.01
109.60
96.70
80.94
64.74
50.45
39.60
32.40
27.72
23.52
17.93
9.87
-0.53
-12.17
-23.58
-33.43
-40.91
-45.84
-49.00
-51.06
-52.07
-51.23
-47.12
-38.27
-23.65
-2.96
23.15
52.51
82.56
110.67
134.16
150.31
156.99
153.64
141.97
125.41
106.01
84.09
57.78
23.88
-20.10
-73.62
-132.11
-188.06
-234.01
-266.87
-286.78
-295.57
-294.96
-285.97
-269.19
-245.53
-216.33
-173.63
-116.57
-51.68
9.44
56.53
85.03
96.40
96.15
91.85
90.11
92.52
97.27
100.84
100.43
95.43
88.35
82.06
79.12
80.50
83.92
86.47
86.02
82.10
75.51
67.63
59.77
53.02
47.93
43.67
39.17
34.48
30.30
27.24
25.44
24.54
23.97
23.05
20.56
15.58
8.11
-0.90
-9.97
-17.77
-23.73
-28.10
-31.68
-35.42
-39.90
-44.49
-48.30
-50.88
-52.67
-54.73
-57.82
-61.74
-65.29
-67.00
-64.87
-57.60
-44.62
-26.09
-2.99
22.93
48.97
74.01
93.87
105.07
107.28
104.36
101.29
101.25
104.36
108.30
110.11
106.91
98.96
87.51
74.26
60.45
46.31
31.10
13.41
-8.74
-38.61
-74.62
-116.68
-163.86
-213.08
-258.62
-292.67
-307.61
-299.08
-268.37
-222.07
-170.82
-124.76
-90.37
-69.40
-59.46
-55.86
-54.02
-50.95
-45.13
-36.72
-26.18
-13.88
-0.85
11.40
21.44
28.16
31.51
32.72
33.54
35.67
39.91
44.97
48.43
48.89
46.79
45.78
50.52
64.19
85.58
112.94
143.25
171.75
194.08
206.30
206.43
195.63
178.24
160.50
148.52
144.30
146.69
154.13
163.02
168.68
166.90
154.42
129.19
91.26
41.05
-17.72
-75.66
-124.54
-160.04
-181.47
-191.72
-195.84
-199.06
-207.91
-225.50
-247.40
-268.69
-286.15
-297.28
-301.11
-297.90
-273.36
-223.27
-172.66
-126.88
-77.02
-19.91
43.08
106.10
160.94
200.24
217.99
214.59
195.02
167.41
141.35
124.70
118.61
118.40
118.01
111.59
97.16
79.82
62.84
47.31
33.64
22.00
12.88
6.98
3.62
2.20
6.12
16.67
33.83
57.21
85.48
115.63
142.31
157.76
154.82
131.14
89.50
37.53
-15.19
-61.04
-96.77
-123.26
-143.61
-159.99
-171.83
-177.32
-175.09
-165.80
-152.32
-138.14
-125.73
-115.76
-107.63
-100.63
-94.87
-91.10
-90.10
-92.10
-96.46
-101.73
-106.15
-108.11
-106.50
-100.95
-91.69
-79.43
-65.06
-49.17
-31.81
-12.47
9.55
34.29
60.48
85.51
105.98
119.09
123.88
121.69
115.92
111.05
111.57
121.14
141.81
173.49
213.42
256.40
295.73
325.19
340.94
342.43
331.97
313.08
288.59
259.79
226.56
188.41
145.25
97.67
46.81
-5.58
-56.99
-104.03
-142.89
-170.60
-186.33
-191.96
-191.48
-189.37
-188.72
-190.41
-193.37
-195.75
-196.39
-195.41
-194.01
-193.63
-195.02
-197.81
-200.65
-201.97
-200.51
-195.90
-188.47
-178.88
-167.66
-154.95
-140.50
-123.91
-104.95
-83.72
-60.69
-36.49
-11.91
12.42
36.03
58.79
80.97
103.30
126.96
153.24
183.11
216.40
251.35
284.56
311.73
328.81
333.43
325.50
307.11
281.73
253.03
224.05
196.84
172.37
150.56
130.44
110.23
87.92
62.05
32.36
0.03
-32.86
-64.29
-92.87
-118.16
-140.30
-159.45
-175.57
-188.50
-198.08
-204.19
-206.31
-203.39
-194.11
-177.80
-155.30
-129.31
-103.95
-83.62
-71.58
-68.86
-74.23
-84.94
-97.91
-110.64
-121.49
-129.71
-135.20
-138.16
-138.99
-138.10
-136.08
-133.55
-131.08
-128.51
-125.62
-122.70
-120.91
-121.91
-127.17
-137.19
-150.85
-165.32
-175.55
-176.88
-167.20
-147.73
-122.19
-94.75
-68.24
-43.27
-18.06
12.01
51.11
100.59
158.07
218.42
275.20
321.73
352.04
362.59
355.33
335.82
311.25
288.37
272.42
266.21
269.59
279.73
278.58
253.23
202.49
137.55
72.44
16.37
-26.80
-56.30
-73.73
-80.58
-79.74
-75.77
-74.47
-80.64
-95.39
-115.32
-133.58
-143.03
-136.53
-109.49
-63.60
-7.48
46.00
83.92
97.65
85.79
47.79
-5.14
-52.67
-76.10
-68.19
-34.74
10.61
53.12
85.79
104.91
111.00
107.24
97.37
84.99
73.36
64.90
57.71
50.96
42.97
33.12
21.05
6.06
-14.46
-39.17
-63.96
-84.97
-99.46
-107.17
-108.75
-106.00
-101.37
-96.85
-94.30
-92.08
-88.02
-79.99
-67.05
-49.11
-27.10
-2.77
21.32
41.43
54.59
59.42
56.88
49.26
39.37
29.26
19.58
9.79
-0.91
-12.50
-24.88
-36.69
-46.11
-51.38
-51.63
-47.36
-40.32
-32.84
-26.93
-24.01
-24.60
-28.50
-35.17
-43.95
-54.13
-65.03
-75.70
-84.83
-90.88
-92.33
-88.20
-78.54
-64.53
-48.16
-31.50
-16.05
-2.32
9.83
20.79
30.62
38.99
45.38
49.58
51.91
53.17
54.32
56.09
58.72
61.99
65.47
68.58
70.82
71.67
70.75
67.81
62.83
56.12
48.09
39.32
30.37
21.57
12.99
4.32
-4.92
-15.07
-25.91
-36.47
-45.11
-50.10
-50.28
-45.55
-37.00
-26.49
-16.08
-7.32
-0.92
3.26
5.97
8.15
10.47
13.17
15.97
18.28
19.62
19.95
19.77
19.97
21.30
23.93
27.22
30.09
31.38
30.47
27.48
23.03
17.84
12.30
6.51
0.59
-4.99
-9.60
-12.68
-14.20
-14.93
-15.89
-17.56
-19.23
-19.23
-15.84
-8.64
1.00
10.37
16.84
19.34
18.77
17.40
17.27
19.14
22.14
24.66
25.45
24.26
21.96
19.68
17.94
16.45
14.30
10.62
5.21
-1.41
-8.20
-13.91
-17.74
-19.38
-19.10
-17.53
-15.33
-13.02
-10.78
-8.52
-5.97
-2.90
0.87
5.43
10.80
16.92
23.60
30.54
37.35
43.63
49.05
53.41
56.55
58.28
58.35
56.45
52.44
46.54
39.25
31.17
22.84
14.72
7.27
1.03
-3.59
-6.63
-8.78
-11.26
-15.32
-21.57
-29.65
-38.36
-46.38
-52.91
-58.04
-62.57
-67.31
-72.51
-77.56
-81.18
-81.84
-78.33
-70.12
-57.50
-41.50
-23.71
-5.68
11.33
26.64
40.02
51.38
60.55
67.23
71.18
72.53
71.77
69.74
67.29
65.10
63.45
62.37
61.76
61.52
61.51
61.16
59.61
55.88
49.32
39.80
27.62
13.23
-3.10
-21.59
-43.06
-68.13
-96.33
-125.44
-151.79
-171.22
-180.57
-178.80
-167.23
-149.38
-129.48
-111.16
-96.48
-86.24
-80.63
-79.74
-83.42
-88.42
-91.37
-90.05
-84.99
-78.72
-73.98
-72.45
-74.27
-78.22
-82.83
-86.74
-89.54
-91.78
-94.38
-98.22
-103.86
-111.43
-120.56
-131.17
-142.95
-155.18
-166.72
-175.83
-180.30
-177.96
-167.18
-147.43
-119.61
-86.08
-50.29
-16.00
13.65
36.48
51.60
59.47
61.50
59.80
56.53
53.39
51.33
50.58
50.76
51.15
50.89
49.20
45.60
40.31
34.24
28.76
25.14
23.84
24.07
24.04
21.63
15.40
5.44
-6.62
-18.05
-25.71
-26.87
-19.75
-3.90
19.72
48.67
79.62
109.06
134.21
153.66
167.43
176.44
181.80
184.30
184.20
181.49
176.23
168.80
159.97
150.67
141.73
133.69
126.69
120.64
115.36
110.78
107.07
104.42
102.80
101.82
100.72
98.64
94.94
89.31
81.77
72.63
62.32
51.63
41.75
34.32
31.02
32.89
39.94
51.14
65.13
80.54
96.25
111.25
124.42
134.31
139.32
138.19
130.65
118.03
102.68
87.25
73.91
63.73
56.62
51.30
45.95
38.91
30.34
21.02
11.82
3.39
-3.80
-9.45
-13.64
-17.05
-20.94
-24.66
-28.06
-31.57
-35.54
-39.16
-40.13
-35.59
-23.58
-3.92
25.08
62.28
103.59
143.31
176.71
201.71
218.65
229.03
234.32
239.82
248.37
259.21
268.85
273.82
272.47
265.07
252.90
211.97
134.36
29.58
-80.53
-176.66
-250.61
-303.27
-339.16
-361.59
-375.90
-380.61
-374.67
-359.64
-339.75
-319.55
-302.06
-287.89
-276.82
-267.90
-255.79
-236.24
-207.96
-172.88
-134.66
-97.08
-63.09
-34.67
-12.73
5.31
21.48
36.22
48.33
56.35
59.91
59.83
57.64
54.55
52.18
50.62
48.65
44.68
37.98
29.28
20.27
12.63
7.22
4.30
3.09
2.31
0.60
-2.85
-8.18
-14.96
-22.46
-29.83
-36.28
-41.36
-44.92
-47.22
-48.89
-50.69
-53.39
-57.35
-62.29
-67.05
-69.79
-68.50
-61.74
-49.32
-32.48
-13.66
4.35
19.19
29.65
35.67
38.11
38.18
36.88
34.87
32.43
29.60
26.36
22.66
18.58
14.37
10.41
7.17
4.93
3.60
2.86
2.25
1.44
0.50
-0.27
-0.61
-0.57
-0.47
-0.68
-1.31
-2.29
-3.49
-5.02
-7.28
-10.63
-15.01
-19.78
-24.16
-27.69
-30.77
-34.44
-39.68
-46.57
-53.73
-58.77
-59.20
-53.61
-42.28
-27.03
-10.36
5.43
18.92
29.79
38.27
44.71
49.26
51.68
51.78
49.62
45.65
40.53
34.92
29.24
23.78
18.76
14.48
11.18
8.88
7.28
5.84
4.10
1.95
-0.26
-1.96
-2.77
-2.79
-2.63
-3.10
-4.80
-7.89
-12.03
-16.59
-20.89
-24.34
-26.40
-26.83
-25.63
-23.27
-20.82
-19.84
-21.81
-27.44
-35.96
-45.12
-51.87
-53.50
-48.76
-38.29
-24.19
-9.09
4.85
16.49
25.64
32.47
37.06
39.22
38.71
35.61
30.45
24.28
18.37
13.81
11.28
10.81
11.83
13.33
14.41
14.54
13.80
12.78
12.20
12.50
13.65
15.14
16.24
16.38
15.35
13.36
10.93
8.55
6.51
4.77
2.94
0.44
-3.41
-9.08
-16.76
-26.26
-36.95
-47.83
-57.55
-64.55
-67.42
-65.26
-58.10
-47.03
-33.98
-21.19
-10.44
-2.76
1.82
3.85
3.96
2.63
0.09
-3.33
-6.95
-9.79
-10.97
-10.21
-8.05
-5.70
-4.42
-4.85
-6.68
-8.79
-9.87
-9.10
-6.49
-2.80
0.89
3.74
5.36
5.82
5.32
4.08
2.18
-0.35
-3.44
-6.99
-10.74
-14.51
-18.12
-21.29
-23.56
-24.12
-21.96
-16.16
-6.32
7.18
23.06
39.47
54.41
66.16
73.66
76.59
75.23
70.29
62.67
53.40
43.47
33.87
25.44
18.84
14.47
12.55
13.18
16.43
22.27
30.47
40.46
51.24
61.63
70.45
76.80
80.27
80.82
78.65
73.98
67.14
58.61
48.97
38.68
27.78
15.73
1.56
-15.60
-35.86
-58.22
-80.60
-100.51
-115.68
-124.74
-127.43
-124.35
-116.62
-105.51
-92.24
-77.98
-63.91
-51.16
-40.74
-33.17
-28.50
-26.07
-24.86
-23.90
-22.49
-20.48
-18.07
-15.59
-13.25
-11.01
-8.60
-5.76
-2.34
1.54
5.45
8.76
10.85
11.40
10.53
8.86
7.22
6.23
6.01
5.95
5.03
2.22
-3.01
-10.49
-19.28
-27.99
-35.11
-39.33
-39.79
-36.23
-29.15
-19.74
-9.40
0.61
9.49
17.04
23.44
29.02
33.97
38.14
41.15
42.59
42.20
40.01
36.45
32.17
27.88
24.12
21.10
18.70
16.63
14.55
12.19
9.35
5.87
1.55
-3.66
-9.59
-15.85
-21.99
-27.78
-33.20
-38.54
-44.16
-50.30
-56.98
-63.83
-70.13
-74.82
-76.67
-74.54
-67.79
-56.52
-41.75
-25.20
-8.82
5.69
17.28
25.54
30.56
32.77
32.77
31.28
29.03
26.70
24.73
23.26
22.21
21.38
20.64
19.99
19.49
19.07
18.61
17.76
16.22
13.94
10.96
7.46
3.52
-0.85
-5.64
-10.75
-16.10
-21.67
-27.57
-33.82
-40.03
-45.19
-47.71
-46.01
-39.13
-27.32
-12.05
4.55
20.38
34.01
44.83
52.78
57.88
60.09
59.33
55.68
49.72
42.37
34.81
27.88
21.81
16.35
10.97
5.31
-0.62
-6.49
-11.96
-16.92
-21.56
-26.29
-31.35
-36.71
-42.07
-47.07
-51.56
-55.71
-59.88
-64.36
-69.00
-72.98
-74.99
-73.51
-67.40
-56.32
-40.98
-22.87
-3.74
14.84
31.79
46.38
58.12
66.46
71.01
71.63
68.68
63.01
55.70
47.91
40.67
34.72
30.32
27.13
24.19
20.22
14.17
5.69
-4.59
-15.35
-25.30
-33.71
-40.82
-47.43
-54.32
-61.75
-69.34
-76.34
-82.03
-85.77
-86.96
-84.72
-77.99
-65.90
-48.22
-25.84
-0.73
24.48
47.32
66.03
79.85
88.96
94.08
95.95
95.07
91.67
85.83
77.79
68.17
57.94
48.13
39.47
32.10
25.61
19.32
12.78
6.12
-0.11
-5.13
-8.38
-9.90
-10.25
-10.34
-11.07
-13.15
-16.95
-22.45
-29.22
-36.31
-42.22
-45.09
-43.19
-35.49
-22.16
-4.66
14.64
33.02
48.10
58.29
62.97
62.42
57.58
49.84
40.86
32.39
25.90
22.47
22.48
25.66
31.07
37.46
43.53
48.07
50.36
50.34
48.55
46.00
43.67
42.26
41.71
41.30
39.84
36.07
29.08
18.72
5.84
-7.65
-18.98
-25.36
-24.82
-17.06
-3.77
11.94
26.66
37.88
44.75
47.89
48.58
48.04
46.83
44.98
42.38
39.22
36.18
34.37
35.07
39.30
47.41
58.65
71.10
82.13
89.17
90.70
86.65
78.33
67.51
55.53
42.81
29.00
13.49
-4.44
-25.57
-50.78
-80.77
-115.10
-151.33
-184.87
-209.99
-221.84
-218.39
-201.20
-174.58
-143.63
-112.25
-82.19
-53.52
-25.87
0.42
23.98
43.08
56.58
64.48
67.90
68.37
67.07
64.31
59.59
52.09
41.12
26.57
8.89
-11.00
-31.98
-52.93
-72.78
-90.66
-105.83
-117.81
-126.37
-131.51
-133.49
-132.82
-130.25
-126.61
-122.52
-118.09
-112.78
-105.51
-95.21
-81.39
-64.39
-45.40
-26.08
-8.11
7.29
19.34
27.76
32.59
34.05
32.57
28.73
23.45
17.86
13.15
10.26
9.55
10.65
12.60
14.32
14.97
14.32
12.72
10.88
9.38
8.51
8.22
8.19
7.97
7.08
4.96
1.06
-5.02
-13.33
-23.22
-33.30
-41.68
-46.15
-44.94
-37.29
-23.77
-6.28
12.56
30.15
44.65
55.29
62.16
65.80
66.73
65.37
62.13
57.62
52.73
48.37
45.26
43.66
43.34
43.78
44.37
44.69
44.42
43.36
41.37
38.30
34.15
29.12
23.58
17.99
12.54
7.16
1.34
-5.55
-13.86
-23.25
-32.53
-39.89
-43.39
-41.62
-34.15
-21.85
-6.70
8.68
21.75
30.69
34.76
34.35
30.63
25.07
18.97
13.27
8.42
4.58
1.78
0.04
-0.74
-0.82
-0.66
-0.75
-1.44
-2.76
-4.52
-6.30
-7.81
-9.04
-10.26
-11.92
-14.39
-17.80
-22.06
-27.03
-32.55
-38.53
-44.68
-50.18
-53.76
-53.95
-49.63
-40.61
-27.87
-13.22
1.23
13.77
23.47
30.08
33.76
34.69
32.96
28.78
22.75
15.86
9.40
4.49
1.63
0.68
0.96
1.62
1.93
1.48
0.08
-2.32
-5.51
-8.94
-11.86
-13.68
-14.43
-14.89
-16.35
-19.97
-26.18
-34.51
-43.87
-52.94
-60.57
-65.82
-67.71
-65.27
-57.77
-45.28
-28.97
-11.11
5.63
19.03
27.86
32.03
32.18
29.32
24.47
18.63
12.75
7.74
4.39
3.09
3.77
5.93
8.76
11.47
13.46
14.36
14.06
12.58
10.02
6.58
2.56
-1.55
-5.31
-8.40
-10.85
-13.10
-15.90
-19.99
-25.70
-32.64
-39.62
-44.74
-45.94
-41.68
-31.60
-16.76
0.53
17.38
31.34
40.85
45.64
46.37
44.26
40.61
36.54
32.88
30.05
28.01
26.44
24.88
23.04
21.01
19.25
18.32
18.32
18.78
18.85
17.73
15.24
11.92
8.71
6.35
4.93
3.91
2.44
-0.13
-4.09
-9.28
-15.31
-21.64
-27.57
-32.08
-33.95
-32.05
-25.78
-15.42
-2.27
11.79
24.74
34.98
41.65
44.62
44.35
41.69
37.60
32.90
28.25
24.04
20.48
17.63
15.45
13.75
12.30
10.91
9.50
8.21
7.24
6.72
6.52
6.26
5.43
3.70
0.97
-2.55
-6.51
-10.63
-14.69
-18.54
-22.11
-25.51
-29.22
-33.78
-39.47
-45.79
-51.22
-53.65
-51.25
-43.34
-30.88
-16.09
-1.54
10.80
20.14
26.69
31.04
33.66
34.59
33.78
31.48
28.50
25.89
24.65
25.17
27.08
29.45
31.19
31.60
30.51
28.24
25.32
22.17
18.94
15.60
12.13
8.54
4.99
1.56
-1.80
-5.21
-8.82
-12.78
-17.22
-22.25
-27.85
-33.70
-39.05
-42.71
-43.33
-39.89
-32.15
-20.85
-7.52
5.91
17.74
26.83
32.69
35.34
35.11
32.42
27.83
22.22
16.76
12.73
11.02
11.64
13.69
15.64
16.17
14.74
11.87
8.61
5.94
4.14
2.72
0.91
-1.82
-5.34
-9.03
-12.19
-14.45
-15.94
-17.09
-18.38
-20.13
-22.64
-25.99
-30.19
-34.87
-39.33
-42.43
-42.94
-39.87
-32.87
-22.47
-9.92
3.14
15.08
24.69
31.31
34.79
35.32
33.34
29.47
24.57
19.68
15.78
13.60
13.27
14.36
15.98
17.19
17.38
16.45
14.76
12.90
11.31
10.03
8.81
7.13
4.59
1.11
-3.13
-7.77
-12.49
-17.03
-21.15
-24.62
-27.42
-29.82
-32.54
-36.30
-41.27
-46.63
-50.49
-50.57
-45.23
-34.40
-19.73
-3.97
10.19
21.07
28.22
32.12
33.39
32.46
29.59
25.22
20.32
16.25
14.45
15.73
19.73
25.03
29.67
31.93
31.08
27.55
22.68
17.95
14.37
12.20
11.06
10.38
9.80
9.29
9.04
9.14
9.44
9.61
9.31
8.30
6.47
3.85
0.56
-2.88
-5.59
-6.24
-3.54
3.24
13.84
26.80
40.09
51.62
60.01
64.82
66.22
64.80
61.22
56.34
51.26
47.27
45.39
45.86
47.95
50.26
51.38
50.64
48.40
45.71
43.64
42.71
42.65
42.61
41.63
39.09
34.75
28.71
21.19
12.46
2.65
-8.12
-19.76
-32.22
-45.24
-58.32
-70.64
-81.05
-88.32
-91.27
-89.17
-82.05
-70.86
-57.25
-43.17
-30.37
-20.43
-14.19
-11.73
-12.57
-15.79
-20.44
-25.58
-30.41
-34.35
-37.68
-40.93
-44.29
-47.40
-49.49
-49.82
-48.05
-44.37
-39.39
-34.96
-32.80
-33.57
-36.77
-41.00
-44.90
-47.76
-49.64
-51.13
-54.20
-60.53
-70.68
-84.26
-100.41
-118.70
-138.96
-160.55
-173.62
-169.88
-146.63
-109.48
-69.26
-35.54
-13.12
-1.77
2.15
3.37
4.38
4.63
4.25
3.75
4.53
8.05
15.07
25.64
39.03
53.08
65.80
76.36
83.95
88.86
91.66
92.85
92.86
91.95
89.68
85.50
79.30
71.35
62.45
53.46
44.99
37.31
30.36
23.70
17.02
10.75
5.94
4.14
6.58
13.63
24.52
37.44
50.09
60.44
67.38
70.83
71.57
70.78
69.55
68.59
68.20
68.36
68.99
70.18
72.13
74.96
78.41
81.58
83.15
81.93
77.37
69.84
60.38
50.05
39.33
27.98
15.30
0.94
-14.68
-30.42
-44.97
-57.66
-68.78
-79.37
-90.35
-101.82
-112.71
-121.02
-124.71
-122.54
-114.58
-102.11
-87.15
-71.85
-58.02
-46.94
-39.28
-35.17
-34.13
-35.30
-37.57
-39.80
-41.14
-41.10
-39.46
-36.20
-31.45
-25.52
-19.01
-12.71
-7.46
-3.92
-2.25
-2.16
-2.95
-3.97
-4.71
-5.09
-5.52
-6.64
-9.07
-13.25
-19.08
-25.99
-32.87
-38.25
-40.51
-38.21
-30.60
-18.03
-2.14
14.49
29.04
39.35
44.57
45.10
42.23
37.36
31.49
25.18
18.77
12.72
7.79
4.61
3.48
4.06
5.49
6.69
6.81
5.54
3.04
-0.12
-3.35
-6.24
-8.75
-11.16
-13.90
-17.35
-21.73
-26.97
-32.72
-38.29
-42.68
-44.72
-43.44
-38.27
-29.50
-18.08
-5.47
6.87
17.77
26.59
33.08
37.25
39.25
39.25
37.42
34.05
29.64
24.95
20.87
18.29
17.64
18.80
20.95
22.90
23.62
22.55
19.78
15.92
11.76
8.04
5.23
3.40
2.16
0.65
-2.29
-7.48
-14.97
-23.61
-31.26
-35.48
-34.44
-27.63
-16.00
-1.56
13.40
27.06
38.34
46.87
52.67
55.75
56.07
53.65
48.72
42.10
35.04
28.90
24.72
22.84
22.75
23.48
23.98
23.54
22.03
19.76
17.18
14.62
12.13
9.44
6.20
2.07
-3.11
-9.24
-15.96
-22.67
-28.49
-32.41
-33.49
-31.15
-25.38
-16.82
-6.59
4.02
13.88
22.27
28.72
33.08
35.21
35.04
32.65
28.34
22.73
16.68
11.23
7.34
5.68
6.32
8.59
11.26
12.99
12.88
10.82
7.49
3.89
0.79
-1.67
-4.01
-7.11
-11.70
-17.98
-25.53
-33.35
-40.15
-44.63
-45.75
-43.13
-37.14
-28.97
-20.13
-12.03
-5.61
-1.09
1.73
3.22
3.59
2.99
1.51
-0.47
-2.37
-3.52
-3.58
-2.74
-1.76
-1.55
-2.65
-4.83
-7.03
-7.84
-6.12
-1.56
5.10
12.44
18.87
23.30
25.44
25.78
25.28
24.97
25.79
28.22
32.52
38.51
45.67
53.30
60.57
66.66
70.98
73.36
73.95
73.16
71.24
68.08
63.28
56.44
47.69
37.93
28.64
21.39
17.13
15.71
16.10
16.88
16.97
16.03
14.41
12.71
11.35
10.28
8.93
6.56
2.65
-2.87
-9.30
-15.44
-20.01
-22.07
-21.41
-18.58
-14.62
-10.69
-7.70
-6.21
-6.47
-8.62
-12.75
-18.77
-26.32
-34.77
-43.10
-50.34
-55.72
-58.92
-60.08
-59.64
-58.09
-55.75
-52.78
-49.30
-45.51
-41.81
-38.67
-36.43
-35.19
-34.92
-35.50
-36.91
-39.07
-41.66
-43.92
-44.79
-43.19
-38.41
-30.40
-19.79
-7.84
3.85
13.54
19.79
21.83
19.86
15.15
9.57
4.93
2.34
1.85
2.79
4.25
5.65
6.92
8.26
9.83
11.51
12.86
13.46
13.11
11.82
9.96
7.85
5.63
3.21
0.41
-2.92
-6.51
-9.64
-11.30
-10.58
-7.10
-1.25
5.95
13.22
19.46
24.01
26.65
27.38
26.30
23.57
19.53
14.81
10.23
6.58
4.26
3.21
3.00
3.07
2.95
2.41
1.40
0.02
-1.46
-2.76
-3.67
-4.21
-4.74
-5.96
-8.53
-12.67
-17.71
-22.22
-24.55
-23.56
-19.26
-12.76
-5.67
0.57
5.34
8.81
11.47
13.67
15.29
15.86
15.04
13.04
10.54
8.38
7.00
6.28
5.63
4.46
2.54
0.12
-2.15
-3.70
-4.31
-4.23
-4.03
-4.35
-5.59
-7.85
-10.99
-14.69
-18.59
-22.34
-25.53
-27.76
-28.55
-27.50
-24.31
-19.02
-12.07
-4.34
3.10
9.25
13.45
15.53
15.73
14.52
12.44
10.01
7.62
5.66
4.39
3.82
3.83
4.02
3.92
3.28
2.07
0.42
-1.45
-3.28
-4.75
-5.53
-5.43
-4.64
-3.80
-3.85
-5.54
-8.98
-13.36
-17.26
-19.18
-18.22
-14.39
-8.50
-1.79
4.66
10.11
14.23
16.94
18.18
17.85
15.85
12.31
7.65
2.76
-1.31
-3.75
-4.28
-3.38
-2.00
-1.08
-1.13
-2.01
-3.14
-3.92
-4.12
-3.92
-3.79
-4.21
-5.50
-7.80
-11.03
-14.95
-19.05
-22.53
-24.46
-24.10
-21.17
-16.02
-9.48
-2.58
3.82
9.16
13.22
15.93
17.18
16.98
15.40
12.74
9.56
6.49
3.98
2.18
1.00
0.30
0.12
0.58
1.68
3.14
4.39
4.81
4.08
2.33
0.07
-2.19
-4.24
-6.26
-8.58
-11.29
-13.96
-15.74
-15.73
-13.43
-8.99
-3.18
3.01
8.69
13.26
16.57
18.74
19.94
20.29
19.79
18.44
16.35
13.83
11.34
9.35
8.13
7.66
7.61
7.50
6.90
5.62
3.79
1.80
0.08
-1.10
-1.77
-2.30
-3.15
-4.78
-7.42
-10.97
-14.94
-18.61
-21.11
-21.68
-19.92
-15.94
-10.31
-3.96
2.15
7.28
10.98
13.03
13.40
12.26
10.04
7.47
5.34
4.19
3.99
4.17
3.90
2.63
0.33
-2.39
-4.73
-6.13
-6.54
-6.39
-6.30
-6.68
-7.57
-8.79
-10.15
-11.68
-13.65
-16.33
-19.74
-23.48
-26.61
-28.03
-26.91
-23.02
-16.92
-9.71
-2.67
3.21
7.38
9.72
10.32
9.39
7.23
4.24
1.02
-1.76
-3.54
-4.01
-3.22
-1.51
0.59
2.58
4.08
4.92
5.01
4.41
3.19
1.50
-0.56
-2.88
-5.46
-8.41
-11.74
-15.37
-18.78
-21.14
-21.57
-19.54
-15.23
-9.40
-2.89
3.74
10.34
16.83
22.76
27.14
28.82
27.20
22.73
16.97
11.90
8.98
8.56
9.92
11.84
13.32
13.95
13.90
13.51
12.91
12.00
10.52
8.27
5.17
1.42
-2.64
-6.71
-10.59
-14.19
-17.37
-19.80
-20.95
-20.17
-17.07
-11.77
-5.04
1.94
7.99
12.35
14.89
15.96
16.10
15.75
15.09
14.09
12.75
11.13
9.37
7.60
5.87
4.16
2.42
0.63
-1.08
-2.62
-3.99
-5.25
-6.56
-8.08
-9.83
-11.87
-14.30
-17.31
-20.94
-24.89
-28.38
-30.33
-29.79
-26.39
-20.56
-13.34
-5.91
0.84
6.56
11.25
14.96
17.64
19.14
19.36
18.50
16.96
15.22
13.65
12.41
11.51
11.02
10.97
11.43
12.47
13.99
15.81
17.62
19.05
19.66
19.05
16.93
13.33
8.67
3.69
-0.90
-4.70
-7.81
-10.79
-14.37
-18.98
-24.46
-30.01
-34.41
-36.46
-35.46
-31.38
-24.92
-17.17
-9.28
-2.14
3.72
8.11
11.07
12.56
12.39
10.48
6.97
2.46
-2.11
-5.78
-8.00
-8.84
-8.78
-8.34
-7.73
-6.94
-5.95
-5.11
-5.00
-6.12
-8.40
-10.99
-12.59
-12.08
-9.09
-4.27
1.16
5.97
9.46
11.66
13.10
14.33
15.69
17.16
18.47
19.25
19.13
17.99
15.97
13.45
11.06
9.38
8.84
9.54
11.28
13.66
16.28
18.87
21.37
23.80
26.14
28.15
29.42
29.56
28.43
26.27
23.64
21.21
19.46
18.52
18.08
17.60
16.65
15.05
13.03
11.06
9.57
8.72
8.27
7.79
6.76
4.95
2.45
-0.49
-3.57
-6.67
-9.64
-12.22
-13.89
-14.11
-12.60
-9.73
-6.50
-4.14
-3.67
-5.41
-8.90
-13.24
-17.46
-20.88
-23.20
-24.26
-23.87
-21.86
-18.16
-13.10
-7.39
-1.97
2.37
5.32
7.09
8.32
9.69
11.52
13.70
15.76
17.22
17.83
17.77
17.38
17.00
16.66
16.08
14.82
12.48
8.85
3.93
-2.02
-8.59
-15.19
-21.11
-25.67
-28.36
-29.04
-27.90
-25.45
-22.27
-19.00
-16.17
-14.31
-13.79
-14.75
-17.17
-20.65
-24.66
-28.54
-31.63
-33.43
-33.61
-32.10
-28.98
-24.40
-18.54
-11.75
-4.63
1.91
6.86
9.46
9.57
7.83
5.44
3.59
2.95
3.46
4.54
5.47
5.89
5.78
5.53
5.59
6.44
8.41
11.72
16.32
21.76
27.41
32.47
36.35
38.82
39.92
39.82
38.68
36.57
33.64
30.23
26.88
24.14
22.29
21.27
20.71
20.29
19.92
19.87
20.54
22.13
24.48
27.08
29.30
30.72
31.21
30.95
30.16
29.00
27.41
25.24
22.34
18.55
13.98
8.93
3.92
-0.45
-3.70
-5.68
-6.60
-6.81
-6.47
-5.48
-3.66
-1.14
1.38
2.73
1.85
-1.61
-7.04
-13.13
-18.53
-22.50
-25.12
-26.91
-28.25
-29.03
-28.63
-26.35
-21.83
-15.28
-7.30
1.35
10.07
18.32
25.77
32.02
36.61
39.08
39.04
36.29
30.93
23.37
14.30
4.58
-4.94
-13.50
-20.56
-25.92
-29.71
-32.30
-34.02
-34.91
-34.64
-32.67
-28.57
-22.49
-15.24
-8.15
-2.69
0.05
-0.36
-3.73
-9.56
-17.24
-26.32
-36.42
-46.92
-57.04
-65.72
-71.94
-75.12
-75.37
-73.49
-70.69
-67.92
-65.49
-63.12
-60.37
-57.14
-54.03
-52.01
-51.85
-53.51
-55.99
-57.79
-57.65
-55.12
-50.68
-45.35
-40.10
-35.41
-31.16
-26.86
-21.89
-15.86
-8.69
-0.63
7.58
15.19
21.46
25.88
28.20
28.31
26.19
21.85
15.46
7.51
-1.07
-9.10
-15.35
-18.89
-19.27
-16.66
-11.74
-5.48
1.06
7.02
11.93
15.67
18.39
20.26
21.25
21.12
19.56
16.54
12.47
8.12
4.40
2.02
1.16
1.58
2.66
3.79
4.55
4.75
4.32
3.23
1.52
-0.61
-2.73
-4.36
-5.18
-5.31
-5.33
-5.99
-7.84
-10.87
-14.49
-17.82
-20.09
-20.90
-20.21
-18.17
-14.91
-10.54
-5.24
0.61
6.42
11.60
15.77
18.93
21.39
23.67
26.18
28.97
31.75
33.90
34.86
34.28
32.28
29.32
25.97
22.65
19.51
16.46
13.41
10.42
7.70
5.53
3.96
2.86
1.86
0.65
-0.83
-2.31
-3.42
-3.83
-3.42
-2.39
-1.07
0.17
1.03
1.28
0.70
-0.56
-2.02
-2.75
-1.64
2.01
8.01
15.19
21.82
26.41
28.38
28.11
26.53
24.46
22.25
19.88
17.37
15.15
13.90
14.17
15.77
17.74
18.72
17.66
14.32
9.29
3.66
-1.64
-6.15
-9.90
-13.15
-16.00
-18.34
-19.85
-20.29
-19.74
-18.63
-17.67
-17.55
-18.62
-20.87
-23.90
-27.15
-30.06
-32.14
-32.99
-32.31
-29.97
-26.08
-20.89
-14.71
-7.76
-0.13
8.08
16.51
24.50
31.11
35.46
37.10
36.25
33.65
30.27
26.90
24.06
21.95
20.80
20.79
22.09
24.52
27.41
29.59
29.82
27.32
22.23
15.67
9.08
3.54
-0.78
-4.54
-8.73
-13.84
-19.57
-24.93
-28.93
-31.22
-32.17
-32.55
-32.81
-32.64
-31.14
-27.41
-21.24
-13.39
-5.40
1.21
5.50
7.45
7.89
7.92
8.35
9.39
10.71
11.75
12.19
12.23
12.55
13.99
17.12
21.88
27.55
32.99
37.12
39.15
38.78
36.03
31.09
24.24
15.95
7.03
-1.30
-7.67
-11.01
-10.95
-7.97
-3.25
1.71
5.52
7.19
6.29
3.02
-1.99
-7.76
-13.17
-17.31
-19.67
-20.25
-19.38
-17.40
-14.51
-10.87
-6.81
-3.06
-0.62
-0.27
-2.17
-5.56
-9.12
-11.49
-11.95
-10.69
-8.57
-6.59
-5.46
-5.31
-5.87
-6.72
-7.50
-7.94
-7.81
-6.91
-5.18
-2.68
0.28
3.24
5.67
7.10
7.14
5.55
2.17
-2.94
-9.38
-16.45
-23.09
-28.03
-30.17
-28.84
-24.04
-16.46
-7.30
2.17
10.90
18.21
23.78
27.52
29.33
29.17
27.12
23.56
19.23
15.01
11.66
9.54
8.45
7.94
7.52
6.98
6.36
5.77
5.13
4.15
2.56
0.46
-1.58
-2.84
-2.93
-2.18
-1.55
-2.00
-3.82
-6.24
-7.84
-7.30
-4.19
0.65
5.56
8.85
9.57
7.74
4.16
-0.16
-4.44
-8.23
-11.30
-13.35
-13.91
-12.28
-7.96
-0.92
8.10
17.66
26.00
31.61
33.73
32.55
29.07
24.66
20.61
17.75
16.40
16.50
17.72
19.71
22.09
24.52
26.67
28.25
28.95
28.50
26.72
23.56
19.20
14.00
8.48
3.16
-1.55
-5.50
-8.86
-12.02
-15.53
-19.87
-25.37
-31.98
-39.24
-46.24
-51.74
-54.43
-53.38
-48.34
-40.09
-30.20
-20.66
-13.17
-8.64
-6.94
-7.08
-7.67
-7.47
-5.70
-2.23
2.55
7.88
12.81
16.52
18.46
18.67
17.63
16.20
15.21
15.07
15.78
16.96
18.04
18.51
17.96
16.14
12.87
8.18
2.25
-4.46
-11.37
-17.83
-23.42
-27.99
-31.69
-34.88
-37.86
-40.67
-42.91
-43.87
-42.73
-38.94
-32.51
-24.10
-14.89
-6.10
1.35
7.15
11.55
15.20
18.79
22.79
27.33
32.20
36.97
41.09
43.97
45.09
44.09
41.02
36.48
31.59
27.59
25.42
25.21
26.30
27.55
27.82
26.48
23.53
19.36
14.39
8.87
2.87
-3.46
-9.72
-15.17
-19.04
-20.86
-20.72
-19.39
-18.03
-17.69
-18.94
-21.49
-24.33
-26.15
-25.89
-23.20
-18.52
-12.82
-7.16
-2.34
1.38
4.05
5.90
7.10
7.72
7.82
7.53
7.18
7.14
7.77
9.12
10.91
12.48
13.02
11.82
8.56
3.48
-2.62
-8.52
-13.01
-15.17
-14.70
-12.08
-8.33
-4.65
-2.02
-0.89
-1.15
-2.33
-3.89
-5.32
-6.16
-6.11
-5.13
-3.65
-2.60
-3.17
-6.15
-11.42
-17.73
-23.07
-25.52
-24.09
-19.03
-11.61
-3.47
4.01
10.04
14.42
17.29
18.88
19.38
18.91
17.61
15.67
13.44
11.42
10.08
9.78
10.47
11.75
12.98
13.64
13.60
13.13
12.82
13.16
14.28
15.89
17.48
18.57
18.85
18.27
17.03
15.40
13.64
12.00
10.66
9.73
9.22
9.08
9.12
9.01
8.32
6.59
3.55
-0.73
-5.68
-10.42
-13.96
-15.57
-15.13
-13.11
-10.41
-7.90
-6.00
-4.63
-3.38
-2.01
-0.68
0.01
-0.50
-2.34
-4.88
-6.94
-7.30
-5.35
-1.36
3.65
8.48
12.24
14.67
15.98
16.48
16.36
15.58
14.07
11.90
9.29
6.66
4.26
2.20
0.31
-1.75
-4.22
-7.25
-10.74
-14.47
-18.10
-21.37
-24.12
-26.35
-28.25
-30.18
-32.54
-35.64
-39.52
-43.78
-47.59
-49.90
-49.74
-46.67
-40.94
-33.46
-25.42
-17.89
-11.50
-6.43
-2.61
0.05
1.49
1.68
0.78
-0.76
-2.26
-3.13
-3.15
-2.57
-1.82
-1.15
-0.47
0.55
2.07
3.80
4.92
4.54
2.18
-1.88
-6.76
-11.26
-14.53
-16.25
-16.68
-16.35
-15.77
-15.23
-14.80
-14.46
-14.15
-13.89
-13.71
-13.71
-14.04
-14.80
-16.00
-17.54
-19.19
-20.69
-21.75
-22.07
-21.25
-18.85
-14.49
-8.11
-0.00
9.10
18.20
26.27
32.55
36.66
38.65
38.87
37.77
35.83
33.39
30.63
27.65
24.47
21.17
17.97
15.17
13.14
12.07
11.93
12.37
13.00
13.38
13.26
12.62
11.49
9.93
7.93
5.59
3.18
1.18
0.00
-0.32
-0.30
-0.82
-2.71
-6.33
-11.30
-16.81
-21.96
-26.21
-29.38
-31.44
-32.22
-31.29
-28.17
-22.74
-15.49
-7.50
-0.03
5.92
9.92
12.03
12.78
12.77
12.44
12.01
11.44
10.62
9.48
8.16
6.98
6.33
6.55
7.68
9.48
11.47
13.12
14.01
13.96
12.98
11.35
9.48
7.90
7.03
7.05
7.73
8.46
8.51
7.30
4.71
1.03
-3.19
-7.45
-11.59
-15.72
-20.12
-24.95
-30.13
-35.32
-40.03
-43.65
-45.40
-44.35
-39.70
-31.24
-19.66
-6.64
5.55
14.94
20.41
22.11
21.07
18.63
15.79
13.06
10.52
8.27
6.57
5.80
6.17
7.56
9.45
11.21
12.30
12.59
12.15
11.28
10.14
8.80
7.22
5.40
3.43
1.43
-0.46
-2.28
-4.13
-6.12
-8.23
-10.31
-12.16
-13.62
-14.74
-15.69
-16.61
-17.58
-18.46
-19.09
-19.45
-19.65
-19.85
-20.08
-20.15
-19.72
-18.37
-15.83
-12.05
-7.18
-1.67
3.98
9.20
13.51
16.63
18.45
19.00
18.42
17.05
15.40
14.18
14.02
15.12
17.13
19.13
20.13
19.53
17.40
14.46
11.50
8.99
6.90
4.92
2.82
0.76
-0.82
-1.51
-1.18
-0.17
0.95
1.68
1.79
1.29
0.44
-0.50
-1.38
-2.23
-3.22
-4.52
-6.35
-8.75
-11.60
-14.54
-16.97
-18.12
-17.23
-13.81
-7.86
-0.01
8.63
16.81
23.51
28.23
30.94
31.98
31.74
30.47
28.34
25.52
22.33
19.33
17.15
16.35
17.18
19.40
22.40
25.25
27.14
27.65
26.89
25.35
23.69
22.50
22.23
23.16
25.21
27.89
30.21
30.88
28.82
23.61
15.83
6.80
-2.10
-10.01
-16.95
-23.49
-30.24
-37.25
-43.90
-49.29
-52.61
-53.42
-51.67
-47.52
-41.26
-33.42
-24.64
-15.79
-7.73
-1.12
3.70
6.69
8.06
8.08
7.11
5.62
4.20
3.40
3.71
5.36
8.27
12.12
16.42
20.66
24.45
27.55
29.93
31.76
33.24
34.46
35.29
35.39
34.37
32.03
28.46
24.10
19.50
15.00
10.75
6.61
2.36
-2.14
-6.89
-11.91
-17.24
-22.91
-28.69
-34.03
-38.10
-40.21
-40.05
-37.89
-34.38
-30.28
-26.08
-22.02
-18.15
-14.53
-11.42
-9.09
-7.69
-7.10
-7.00
-7.05
-7.09
-7.16
-7.37
-7.71
-7.97
-7.93
-7.37
-6.32
-5.05
-3.93
-3.29
-3.26
-3.80
-4.77
-6.10
-7.75
-9.64
-11.64
-13.45
-14.75
-15.29
-15.14
-14.55
-13.92
-13.62
-13.90
-14.88
-16.62
-19.16
-22.37
-25.98
-29.37
-31.71
-32.06
-29.73
-24.50
-16.72
-7.38
2.30
11.04
17.91
22.43
24.53
24.47
22.65
19.66
16.30
13.57
12.35
13.07
15.42
18.37
20.63
21.26
20.10
17.86
15.71
14.61
14.90
16.14
17.36
17.65
16.43
13.67
9.77
5.32
0.83
-3.36
-7.08
-10.40
-13.30
-15.85
-18.20
-20.60
-23.40
-26.87
-30.92
-34.94
-37.86
-38.45
-35.92
-30.06
-21.53
-11.54
-1.56
7.10
13.62
17.69
19.56
19.79
19.01
17.76
16.35
14.89
13.44
12.13
11.16
10.86
11.40
12.75
14.69
16.89
19.16
21.39
23.49
25.28
26.45
26.57
25.36
22.93
19.79
16.72
14.31
12.67
11.27
9.22
5.70
0.38
-6.42
-14.02
-21.65
-28.81
-35.26
-40.85
-45.24
-47.85
-48.00
-45.22
-39.60
-31.76
-22.71
-13.47
-4.82
2.78
9.21
14.50
18.67
21.68
23.40
23.70
22.64
20.54
18.00
15.75
14.41
14.28
15.17
16.54
17.68
18.06
17.45
15.89
13.55
10.55
6.99
3.05
-0.96
-4.58
-7.39
-9.23
-10.26
-10.84
-11.36
-12.09
-13.17
-14.69
-16.65
-19.06
-21.67
-23.88
-24.84
-23.72
-19.97
-13.58
-4.91
5.32
16.19
26.66
35.67
42.37
46.37
47.89
47.71
46.82
45.98
45.49
45.16
44.60
43.55
42.07
40.46
39.03
37.82
36.58
34.81
32.02
27.93
22.56
16.38
9.98
3.91
-1.60
-6.62
-11.41
-16.14
-20.65
-24.57
-27.47
-29.21
-30.19
-31.21
-33.12
-36.45
-41.06
-46.16
-50.51
-52.81
-52.11
-47.98
-40.58
-30.61
-19.13
-7.39
3.30
11.70
16.89
18.51
17.02
13.67
10.12
8.06
8.52
11.64
16.72
22.48
27.62
31.14
32.65
32.36
30.93
28.99
26.83
24.21
20.56
15.39
8.68
1.09
-6.28
-12.33
-16.51
-18.96
-20.26
-21.11
-22.01
-23.15
-24.60
-26.36
-28.33
-30.21
-31.47
-31.54
-30.12
-27.34
-23.72
-19.93
-16.41
-13.27
-10.34
-7.38
-4.22
-0.92
2.45
5.81
9.13
12.38
15.39
17.90
19.56
20.17
19.72
18.48
16.92
15.64
15.18
15.85
17.57
19.86
21.92
22.95
22.47
20.51
17.55
14.34
11.45
9.21
7.64
6.62
6.12
6.14
6.63
7.37
8.05
8.48
8.82
9.50
10.94
13.25
16.02
18.50
20.01
20.30
19.65
18.68
17.96
17.75
17.99
18.44
18.87
19.15
19.14
18.63
17.33
14.95
11.47
7.15
2.36
-2.47
-7.11
-11.58
-16.12
-21.02
-26.58
-32.91
-39.87
-47.06
-53.80
-59.33
-62.96
-64.28
-63.27
-60.30
-55.92
-50.61
-44.66
-38.14
-31.09
-23.66
-16.18
-9.15
-3.02
1.89
5.61
8.48
11.16
14.45
18.98
25.04
32.25
39.72
46.17
50.41
51.65
49.69
44.79
37.54
28.70
19.17
9.91
1.78
-4.73
-9.72
-13.75
-17.52
-21.38
-25.10
-28.04
-29.54
-29.42
-28.10
-26.41
-25.11
-24.50
-24.30
-23.93
-22.84
-20.76
-17.81
-14.27
-10.35
-6.26
-2.11
1.83
5.03
6.82
6.56
4.04
-0.27
-5.21
-9.37
-11.48
-10.97
-8.07
-3.73
0.79
4.38
6.27
6.25
4.51
1.53
-2.14
-5.89
-9.23
-11.81
-13.46
-14.23
-14.39
-14.29
-14.18
-14.16
-14.03
-13.38
-11.89
-9.43
-6.33
-3.20
-0.76
0.41
0.11
-1.47
-3.61
-5.25
-5.26
-2.93
1.59
7.15
11.86
13.91
12.25
7.14
-0.07
-7.59
-13.96
-18.41
-20.81
-21.37
-20.25
-17.54
-13.37
-8.16
-2.61
2.40
6.10
8.05
8.13
6.66
4.23
1.53
-0.81
-2.33
-2.83
-2.35
-1.05
0.91
3.28
5.78
7.94
9.30
9.50
8.52
6.71
4.67
3.00
2.10
2.03
2.62
3.58
4.61
5.47
5.98
6.09
5.94
5.96
6.75
8.84
12.42
17.00
21.66
25.26
26.98
26.64
24.67
21.76
18.63
15.75
13.52
12.26
12.16
13.05
14.26
14.74
13.52
10.22
5.33
-0.00
-4.49
-7.36
-8.55
-8.55
-8.01
-7.32
-6.56
-5.68
-4.72
-3.93
-3.65
-4.13
-5.40
-7.39
-9.85
-12.61
-15.45
-18.18
-20.63
-22.58
-23.88
-24.42
-24.21
-23.35
-22.05
-20.59
-19.32
-18.54
-18.41
-18.94
-19.79
-20.36
-19.90
-17.66
-13.11
-6.11
2.97
13.30
23.65
32.69
39.34
43.04
43.86
42.45
39.69
36.35
32.92
29.55
26.24
23.03
20.12
17.76
16.07
15.06
14.66
14.76
15.08
15.05
13.81
10.54
4.96
-2.28
-9.77
-15.93
-19.79
-21.46
-21.99
-22.69
-24.39
-27.15
-30.45
-33.70
-36.68
-39.57
-42.51
-45.30
-47.23
-47.55
-45.72
-41.85
-36.74
-31.46
-26.98
-23.79
-21.84
-20.76
-20.13
-19.69
-19.34
-19.02
-18.60
-17.87
-16.67
-15.01
-13.09
-11.17
-9.32
-7.35
-4.83
-1.37
3.08
8.11
12.86
16.44
18.19
17.92
15.93
12.78
9.13
5.46
2.15
-0.56
-2.50
-3.57
-3.79
-3.38
-2.71
-2.02
-1.21
0.17
2.74
6.86
12.32
18.37
24.07
28.72
32.16
34.68
36.63
38.04
38.51
37.44
34.50
29.95
24.62
19.54
15.45
12.55
10.53
8.82
6.94
4.68
2.15
-0.34
-2.48
-4.09
-5.16
-5.80
-6.16
-6.37
-6.47
-6.48
-6.43
-6.39
-6.45
-6.75
-7.31
-8.07
-8.92
-9.76
-10.56
-11.38
-12.28
-13.25
-14.12
-14.60
-14.32
-13.05
-10.70
-7.39
-3.54
0.38
3.89
6.51
8.09
8.67
8.57
8.27
8.11
8.27
8.74
9.52
10.73
12.64
15.36
18.60
21.56
23.19
22.71
20.05
15.90
11.42
7.68
5.14
3.67
2.75
1.92
1.07
0.39
0.10
0.21
0.44
0.26
-0.81
-2.98
-6.20
-10.02
-13.70
-16.35
-17.17
-15.73
-12.19
-7.30
-2.18
2.09
4.88
6.17
6.49
6.57
6.91
7.64
8.48
9.05
9.08
8.53
7.45
5.87
3.71
0.89
-2.52
-6.15
-9.40
-11.60
-12.33
-11.60
-9.81
-7.63
-5.71
-4.43
-3.89
-3.96
-4.45
-5.26
-6.40
-7.92
-9.63
-11.07
-11.57
-10.72
-8.65
-6.13
-4.23
-3.72
-4.48
-5.58
-5.61
-3.54
0.77
6.50
12.31
16.98
19.89
21.11
21.06
20.26
19.10
17.90
16.98
16.65
16.98
17.89
19.06
20.12
20.85
21.21
21.34
21.42
21.55
21.71
21.83
21.85
21.76
21.54
21.07
20.08
18.24
15.30
11.28
6.46
1.30
-3.81
-8.50
-12.58
-15.83
-18.00
-18.87
-18.35
-16.57
-13.88
-10.72
-7.40
-4.22
-1.42
0.58
1.28
0.31
-2.38
-6.30
-10.63
-14.28
-16.26
-15.87
-12.95
-8.00
-2.10
3.45
7.64
10.08
11.28
12.29
14.03
16.72
19.70
21.91
22.58
21.84
20.63
20.21
21.28
23.60
26.12
27.53
27.03
24.57
20.88
16.89
13.34
10.47
8.10
5.99
4.04
2.42
1.41
1.26
2.01
3.51
5.41
7.32
8.94
10.07
10.58
10.45
9.68
8.38
6.72
4.99
3.46
2.39
1.83
1.70
1.80
1.95
2.00
1.85
1.41
0.45
-1.23
-3.82
-7.32
-11.51
-16.06
-20.58
-24.73
-28.18
-30.52
-31.35
-30.49
-28.23
-25.36
-23.02
-22.09
-22.81
-24.49
-25.83
-25.57
-23.01
-18.35
-12.41
-6.25
-0.65
4.00
7.60
10.15
11.53
11.55
10.16
7.56
4.25
0.98
-1.58
-3.10
-3.71
-4.00
-4.67
-6.24
-8.80
-12.02
-15.32
-18.21
-20.48
-22.22
-23.70
-25.20
-26.95
-29.01
-31.36
-33.88
-36.29
-38.25
-39.41
-39.62
-39.03
-38.11
-37.45
-37.54
-38.45
-39.84
-41.06
-41.35
-40.24
-37.52
-33.43
-28.39
-22.88
-17.30
-11.96
-7.06
-2.64
1.43
5.42
9.47
13.34
16.26
17.16
15.14
10.14
3.26
-3.56
-8.28
-9.64
-7.75
-3.90
0.05
2.55
2.93
1.41
-1.34
-4.59
-8.01
-11.53
-15.19
-19.04
-22.79
-26.13
-28.79
-30.73
-32.07
-32.88
-32.94
-31.61
-28.10
-21.91
-13.24
-3.22
6.37
13.79
18.03
19.34
19.08
19.16
21.21
25.89
32.78
40.64
48.07
54.06
58.16
60.47
61.26
60.84
59.34
56.85
53.59
49.80
45.81
41.79
37.76
33.66
29.45
25.10
20.48
15.45
10.01
4.47
-0.42
-3.68
-4.69
-3.56
-1.28
0.76
1.55
0.99
-0.08
-0.54
0.32
2.29
4.43
5.75
5.67
4.31
2.20
-0.11
-2.23
-4.07
-5.66
-7.21
-8.84
-10.64
-12.60
-14.59
-16.45
-18.15
-19.82
-21.61
-23.38
-24.50
-24.02
-21.03
-15.26
-7.26
1.74
10.42
17.93
24.20
29.79
35.46
41.60
47.89
53.32
56.59
56.62
53.21
47.13
39.95
33.38
28.68
26.31
25.87
26.64
27.92
29.31
30.62
31.51
31.28
28.99
23.90
16.04
6.35
-3.77
-13.14
-21.45
-29.32
-37.69
-46.94
-56.22
-63.62
-67.06
-65.36
-58.95
-49.65
-39.79
-31.11
-24.36
-19.37
-15.62
-12.79
-10.94
-10.19
-10.38
-10.96
-11.08
-10.24
-8.61
-6.95
-6.19
-6.71
-7.98
-8.79
-7.84
-4.41
1.29
8.33
15.64
22.50
28.79
34.65
40.13
44.82
47.92
48.61
46.58
42.26
36.64
31.01
26.34
23.17
21.67
21.92
24.09
28.33
34.42
41.41
47.86
52.16
53.24
51.04
46.24
39.78
32.19
23.49
13.51
2.42
-9.02
-19.68
-28.53
-35.11
-39.48
-41.95
-42.65
-41.58
-38.81
-34.87
-30.80
-27.75
-26.48
-26.85
-28.06
-29.13
-29.55
-29.49
-29.64
-30.59
-32.39
-34.52
-36.01
-36.00
-34.16
-30.79
-26.75
-23.03
-20.31
-18.66
-17.64
-16.50
-14.66
-11.96
-8.71
-5.57
-3.13
-1.85
-2.00
-3.65
-6.73
-10.94
-15.67
-20.02
-23.14
-24.39
-23.71
-21.42
-18.02
-13.94
-9.48
-4.98
-0.84
2.40
4.34
4.75
3.76
1.68
-1.14
-4.41
-7.87
-11.06
-13.27
-13.72
-11.93
-8.12
-3.22
1.46
4.81
6.37
6.50
5.94
5.38
5.09
4.78
3.95
2.22
-0.26
-2.96
-5.19
-6.58
-7.28
-7.90
-9.16
-11.40
-14.42
-17.23
-18.60
-17.49
-13.64
-7.69
-1.02
4.81
8.67
10.15
9.62
7.85
5.53
2.96
-0.04
-3.83
-8.49
-13.56
-18.05
-20.77
-20.96
-18.65
-14.69
-10.42
-6.99
-4.91
-3.93
-3.28
-2.20
-0.42
1.74
3.59
4.25
3.26
0.55
-3.44
-7.94
-12.05
-14.94
-15.99
-14.83
-11.48
-6.50
-1.04
3.26
4.77
2.52
-3.19
-10.77
-17.80
-22.03
-22.26
-18.73
-12.72
-5.83
0.79
6.77
12.14
16.97
21.13
24.48
27.24
30.13
34.15
39.86
47.00
54.29
59.86
62.10
60.32
55.04
47.78
40.35
34.13
29.64
26.52
23.86
20.79
16.81
11.99
6.67
1.30
-3.86
-8.67
-13.03
-16.78
-19.73
-21.79
-22.98
-23.40
-23.05
-21.74
-19.17
-15.13
-9.79
-3.73
2.12
6.91
10.12
11.75
12.16
11.82
10.99
9.62
7.60
4.92
1.94
-0.79
-2.84
-4.12
-4.99
-5.96
-7.40
-9.13
-10.47
-10.55
-8.79
-5.26
-0.59
4.18
8.11
10.59
11.46
10.87
9.07
6.29
2.73
-1.38
-5.76
-9.92
-13.35
-15.65
-16.64
-16.57
-16.05
-15.79
-16.37
-17.98
-20.29
-22.68
-24.49
-25.40
-25.51
-25.19
-24.88
-24.73
-24.52
-23.79
-22.08
-19.07
-14.78
-9.52
-3.70
2.24
8.04
13.62
19.07
24.41
29.52
34.00
37.22
38.71
38.20
35.83
32.02
27.17
21.55
15.29
8.65
2.29
-2.81
-5.81
-6.48
-5.49
-4.20
-4.01
-5.63
-8.81
-12.50
-15.52
-17.22
-17.69
-17.59
-17.73
-18.36
-19.19
-19.43
-18.35
-15.63
-11.56
-6.86
-2.35
1.28
3.85
5.50
6.52
7.15
7.36
6.96
5.76
3.77
1.24
-1.37
-3.66
-5.38
-6.54
-7.24
-7.75
-8.31
-9.03
-9.91
-10.73
-11.23
-11.17
-10.55
-9.67
-9.05
-9.20
-10.36
-12.33
-14.44
-15.81
-15.67
-13.61
-9.78
-4.61
1.22
7.17
12.97
18.49
23.63
28.15
31.82
34.57
36.49
37.67
37.83
36.28
32.10
24.80
14.79
3.56
-6.86
-14.71
-19.29
-21.00
-20.97
-20.25
-19.21
-17.70
-15.42
-12.45
-9.48
-7.46
-7.07
-8.35
-10.72
-13.03
-14.28
-13.79
-11.43
-7.50
-2.49
3.12
8.89
14.44
19.34
23.19
25.71
26.86
26.93
26.39
25.78
25.55
25.95
27.13
29.14
31.93
35.26
38.58
41.12
42.02
40.77
37.47
32.85
27.92
23.47
19.66
15.93
11.43
5.53
-1.64
-9.19
-15.95
-21.07
-24.46
-26.61
-28.12
-29.15
-29.40
-28.37
-26.00
-22.86
-19.99
-18.27
-17.90
-18.36
-18.72
-18.36
-17.22
-15.78
-14.62
-14.02
-13.79
-13.55
-13.05
-12.32
-11.61
-11.15
-11.01
-11.11
-11.19
-11.17
-11.08
-11.09
-11.44
-12.39
-14.14
-16.63
-19.53
-22.18
-23.77
-23.62
-21.52
-17.80
-13.30
-9.08
-6.09
-4.87
-5.53
-7.74
-10.91
-14.40
-17.63
-20.21
-21.91
-22.65
-22.35
-20.93
-18.26
-14.29
-9.29
-3.85
1.41
5.99
9.86
13.46
17.39
22.06
27.45
33.30
39.47
46.15
53.68
62.04
70.46
77.52
81.72
82.24
79.42
74.57
69.30
64.75
61.22
58.22
54.96
50.88
45.83
40.02
33.78
27.38
20.95
14.56
8.27
2.16
-3.59
-8.70
-12.92
-16.07
-18.18
-19.46
-20.18
-20.54
-20.58
-20.15
-19.14
-17.54
-15.68
-14.09
-13.46
-14.28
-16.55
-19.67
-22.58
-24.27
-24.18
-22.45
-19.84
-17.33
-15.67
-15.10
-15.48
-16.36
-17.41
-18.37
-19.08
-19.42
-19.15
-18.13
-16.37
-14.10
-11.80
-10.13
-9.63
-10.46
-12.19
-13.86
-14.36
-13.04
-10.11
-6.65
-4.10
-3.60
-5.48
-9.16
-13.52
-17.44
-20.21
-21.55
-21.39
-19.65
-16.28
-11.35
-5.32
0.93
6.39
10.25
12.14
12.22
11.16
9.76
8.64
8.10
8.02
8.04
7.71
6.77
5.15
3.01
0.62
-1.76
-3.93
-5.81
-7.46
-9.05
-10.69
-12.43
-14.20
-15.89
-17.52
-19.30
-21.57
-24.45
-27.58
-30.05
-30.74
-28.89
-24.55
-18.69
-12.71
-7.92
-4.86
-3.30
-2.49
-1.71
-0.65
0.47
1.21
1.45
1.55
2.34
4.58
8.39
13.03
17.18
19.54
19.54
17.79
15.61
14.41
14.81
16.28
17.48
16.96
13.94
8.68
2.33
-3.59
-7.78
-9.59
-9.00
-6.56
-3.03
1.03
5.27
9.67
14.26
18.91
23.13
26.15
27.22
26.03
22.92
18.80
14.84
11.95
10.46
10.09
10.16
9.98
9.10
7.41
4.93
1.72
-2.31
-7.26
-13.10
-19.57
-26.13
-32.11
-36.83
-39.75
-40.46
-38.91
-35.37
-30.36
-24.58
-18.68
-13.05
-7.98
-3.70
-0.49
1.41
1.98
1.59
0.88
0.44
0.57
1.10
1.55
1.39
0.35
-1.53
-3.94
-6.44
-8.63
-10.37
-11.85
-13.68
-16.68
-21.39
-27.81
-35.18
-42.24
-47.84
-51.26
-52.37
-51.18
-47.54
-41.10
-31.67
-19.64
-6.12
7.46
19.93
30.88
40.73
50.26
60.03
70.20
80.46
90.31
99.33
107.36
114.54
121.13
127.28
132.76
136.92
138.77
137.36
132.14
123.30
111.75
98.83
85.93
74.09
63.73
54.67
46.44
38.34
29.83
20.66
10.90
0.89
-8.74
-17.20
-23.63
-27.17
-27.45
-24.89
-20.80
-17.07
-15.47
-16.94
-21.31
-27.49
-34.06
-39.97
-44.73
-48.27
-50.62
-51.69
-51.42
-49.97
-47.86
-45.79
-44.28
-43.44
-43.05
-42.83
-42.47
-41.89
-41.05
-39.95
-38.66
-37.41
-36.53
-36.30
-36.69
-37.14
-36.69
-34.32
-29.48
-22.31
-13.72
-5.07
2.36
7.65
10.54
11.29
10.39
8.35
5.50
2.08
-1.70
-5.33
-8.13
-9.40
-8.79
-6.58
-3.53
-0.68
1.25
2.10
2.24
2.32
2.74
3.40
3.87
3.68
2.73
1.43
0.37
-0.01
0.22
0.62
0.69
0.28
-0.07
0.55
3.06
7.75
14.08
20.84
26.60
30.29
31.52
30.58
28.19
25.13
21.94
18.84
15.76
12.45
8.88
5.21
1.76
-1.15
-3.44
-5.39
-7.45
-10.05
-13.35
-17.04
-20.53
-23.26
-25.01
-26.02
-26.74
-27.56
-28.48
-29.04
-28.53
-26.43
-22.67
-17.58
-11.65
-5.21
1.56
8.59
15.56
21.72
26.05
27.60
25.85
20.95
13.78
5.57
-2.29
-8.68
-12.98
-15.14
-15.66
-15.28
-14.62
-14.00
-13.45
-12.93
-12.53
-12.44
-12.75
-13.25
-13.36
-12.44
-10.20
-7.01
-3.71
-1.20
0.23
0.98
1.94
3.96
7.32
11.53
15.60
18.48
19.57
18.97
17.59
16.76
17.77
21.31
27.03
33.55
38.94
41.38
39.93
34.87
27.48
19.56
12.68
7.65
4.38
2.15
0.03
-2.57
-5.71
-9.00
-12.01
-14.54
-16.88
-19.57
-23.06
-27.30
-31.55
-34.67
-35.58
-33.80
-29.64
-24.12
-18.31
-13.04
-8.61
-4.85
-1.63
0.88
2.18
1.72
-0.51
-3.82
-7.04
-9.17
-9.94
-10.00
-10.56
-12.61
-16.43
-21.37
-26.23
-29.81
-31.32
-30.50
-27.47
-22.50
-15.99
-8.45
-0.69
6.37
11.91
15.60
17.70
18.86
20.07
22.07
25.11
28.85
32.41
34.78
35.20
33.44
29.86
25.20
20.20
15.39
10.92
6.71
2.61
-1.37
-5.04
-8.06
-10.16
-11.28
-11.66
-11.67
-11.61
-11.65
-11.77
-11.79
-11.58
-11.13
-10.64
-10.44
-10.89
-12.38
-15.10
-19.02
-23.78
-28.65
-32.71
-35.08
-35.24
-33.20
-29.38
-24.47
-19.32
-14.76
-11.52
-10.08
-10.46
-12.13
-14.08
-15.16
-14.48
-11.81
-7.64
-2.77
2.02
6.40
10.43
14.21
17.62
20.13
21.05
19.94
16.86
12.33
7.05
1.55
-4.13
-10.20
-16.77
-23.43
-29.07
-32.29
-32.01
-27.93
-20.74
-11.77
-2.59
5.54
11.78
15.81
17.76
18.09
17.53
16.77
16.25
15.93
15.37
13.89
11.02
6.76
1.71
-3.14
-6.72
-8.13
-6.80
-2.59
4.34
13.37
23.57
33.68
42.20
47.68
48.92
45.43
37.66
26.98
15.33
4.61
-3.89
-9.62
-12.75
-13.75
-13.09
-11.19
-8.49
-5.60
-3.19
-1.80
-1.50
-1.97
-2.70
-3.24
-3.51
-3.73
-4.14
-4.82
-5.63
-6.44
-7.16
-7.97
-9.19
-11.06
-13.66
-16.81
-20.19
-23.45
-26.39
-28.89
-30.93
-32.46
-33.47
-34.04
-34.36
-34.67
-35.05
-35.18
-34.26
-31.25
-25.40
-16.70
-6.06
4.95
14.66
21.93
26.45
28.65
29.25
28.82
27.47
24.93
20.94
15.46
8.94
2.17
-4.08
-9.26
-13.23
-16.06
-17.81
-18.24
-16.96
-13.75
-8.86
-3.16
2.15
6.07
8.21
8.95
9.08
9.38
10.26
11.81
13.91
16.58
20.01
24.48
30.08
36.54
43.18
49.12
53.54
55.93
56.44
55.72
54.80
54.69
55.99
58.76
62.51
66.46
69.87
72.23
73.29
72.98
71.27
68.25
64.23
59.77
55.58
52.13
49.06
44.97
37.81
25.88
9.07
-10.43
-28.62
-40.98
-44.50
-38.74
-25.89
-9.54
6.91
21.17
32.32
40.10
44.33
44.75
41.25
34.43
25.52
16.10
7.45
0.12
-6.32
-12.82
-20.44
-29.74
-40.36
-50.96
-59.48
-63.80
-62.57
-55.95
-45.74
-34.75
-25.79
-20.53
-19.05
-20.15
-22.18
-23.95
-25.16
-26.22
-27.67
-29.68
-31.76
-33.00
-32.61
-30.31
-26.60
-22.40
-18.68
-16.13
-14.96
-14.86
-15.31
-15.64
-15.16
-13.34
-9.83
-4.71
1.41
7.46
12.06
14.03
12.89
9.05
3.70
-1.70
-6.10
-9.17
-11.30
-13.20
-15.39
-18.01
-20.85
-23.63
-26.09
-28.06
-29.31
-29.51
-28.44
-26.11
-22.87
-19.17
-15.20
-10.82
-5.79
-0.25
5.04
8.81
9.97
8.16
4.07
-0.87
-5.24
-8.26
-9.93
-10.81
-11.47
-12.14
-12.76
-13.03
-12.82
-12.18
-11.36
-10.61
-10.15
-10.19
-10.82
-12.27
-14.72
-18.30
-22.88
-27.89
-32.30
-34.83
-34.40
-30.53
-23.58
-14.51
-4.51
5.37
14.40
22.09
28.05
31.94
33.66
33.46
31.91
29.60
26.78
23.25
18.50
12.20
4.58
-3.40
-10.46
-15.49
-18.07
-18.65
-18.24
-17.99
-18.73
-20.70
-23.63
-27.06
-30.59
-34.00
-37.17
-39.70
-41.00
-40.40
-37.55
-32.74
-26.80
-20.80
-15.47
-10.93
-6.86
-2.90
0.95
4.24
6.42
7.24
6.92
6.13
5.57
5.60
6.18
6.93
7.45
7.46
6.95
6.07
4.95
3.70
2.30
0.85
-0.42
-1.06
-0.46
1.87
6.06
11.77
18.30
24.90
31.15
37.09
43.04
49.24
55.53
61.27
65.66
68.08
68.35
66.55
62.79
57.17
49.88
41.51
33.24
26.53
22.58
21.71
23.19
25.52
27.19
27.37
26.12
24.07
21.84
19.74
17.70
15.57
13.27
10.84
8.17
4.89
0.42
-5.73
-13.67
-22.95
-32.56
-41.23
-47.73
-51.10
-50.90
-47.22
-40.72
-32.44
-23.63
-15.39
-8.50
-3.40
-0.28
0.76
-0.27
-3.15
-7.44
-12.39
-17.22
-21.27
-24.17
-26.01
-27.13
-28.02
-29.00
-30.11
-31.03
-31.27
-30.47
-28.59
-26.03
-23.45
-21.45
-20.31
-19.80
-19.35
-18.39
-16.52
-13.74
-10.26
-6.36
-2.24
1.99
6.24
10.34
13.95
16.70
18.23
18.41
17.39
15.57
13.42
11.33
9.66
8.68
8.66
9.70
11.53
13.44
14.42
13.61
10.73
6.32
1.49
-2.62
-5.47
-7.35
-9.04
-11.33
-14.41
-17.79
-20.58
-22.05
-21.97
-20.62
-18.65
-16.66
-15.18
-14.37
-14.32
-15.07
-16.71
-19.34
-23.01
-27.62
-32.87
-38.35
-43.66
-48.47
-52.63
-56.22
-59.38
-62.38
-65.52
-69.13
-73.39
-78.15
-82.82
-86.58
-88.69
-89.05
-88.33
-87.77
-88.55
-91.12
-94.88
-98.38
-100.00
-98.56
-93.74
-85.83
-75.46
-63.03
-48.72
-32.69
-15.40
2.25
19.22
34.81
49.09
62.90
77.36
93.19
110.25
127.57
143.86
158.14
170.18
180.36
189.20
196.94
203.35
207.82
209.72
208.68
204.52
197.21
186.74
173.24
157.07
139.06
120.37
102.34
85.96
71.81
59.79
49.36
39.81
30.53
21.18
11.71
2.25
-6.96
-15.65
-23.59
-30.57
-36.40
-41.00
-44.45
-46.99
-48.91
-50.40
-51.44
-51.85
-51.44
-50.19
-48.38
-46.39
-44.64
-43.26
-42.18
-41.22
-40.31
-39.58
-39.13
-38.91
-38.49
-37.21
-34.54
-30.39
-25.23
-19.76
-14.46
-9.38
-4.29
0.83
5.49
8.70
9.52
7.70
3.93
-0.44
-3.97
-5.81
-5.93
-4.91
-3.52
-2.21
-1.06
0.15
1.62
3.36
5.16
6.67
7.55
7.54
6.73
5.45
4.30
3.94
4.83
7.11
10.54
14.66
19.09
23.57
27.96
32.19
36.02
39.02
40.68
40.60
38.71
35.39
31.32
27.22
23.62
20.68
18.20
15.86
13.33
10.43
7.09
3.27
-1.11
-6.24
-12.29
-19.39
-27.53
-36.62
-46.36
-56.23
-65.51
-73.29
-78.68
-80.95
-79.63
-74.72
-66.73
-56.73
-46.19
-36.65
-29.27
-24.55
-22.26
-21.68
-21.98
-22.62
-23.42
-24.36
-25.39
-26.22
-26.48
-25.94
-24.63
-22.88
-21.09
-19.57
-18.49
-17.92
-17.89
-18.41
-19.43
-20.84
-22.53
-24.31
-25.98
-27.22
-27.52
-26.20
-22.65
-16.59
-8.31
1.26
10.85
19.15
25.21
28.59
29.48
28.52
26.54
24.39
22.62
21.39
20.46
19.41
17.87
15.83
13.57
11.61
10.37
9.91
9.96
9.98
9.58
8.58
7.08
5.28
3.35
1.64
0.86
2.22
7.06
16.33
29.91
46.35
63.38
78.69
90.91
99.84
106.15
110.50
112.97
112.94
109.58
102.60
92.61
80.88
68.80
57.22
46.35
35.93
25.75
15.83
6.54
-1.83
-9.27
-16.16
-23.10
-30.62
-38.95
-47.98
-57.25
-66.05
-73.46
-78.53
-80.38
-78.56
-73.14
-64.83
-54.71
-43.88
-33.23
-23.28
-14.33
-6.66
-0.59
3.56
5.63
5.76
4.39
2.23
0.03
-1.53
-2.03
-1.48
-0.18
1.25
2.20
2.23
1.20
-0.79
-3.51
-6.72
-10.14
-13.60
-17.13
-20.97
-25.47
-30.69
-36.09
-40.42
-42.15
-40.16
-34.46
-26.32
-17.71
-10.54
-5.86
-3.68
-3.37
-4.16
-5.60
-7.60
-10.07
-12.77
-15.25
-17.17
-18.35
-18.94
-19.37
-20.04
-21.24
-23.01
-25.20
-27.52
-29.68
-31.63
-33.54
-35.77
-38.63
-42.17
-45.99
-49.30
-51.14
-50.60
-47.18
-40.92
-32.48
-22.98
-13.72
-5.86
-0.11
3.44
5.18
5.80
5.92
5.92
5.93
5.81
5.49
4.93
4.19
3.38
2.60
1.90
1.40
1.38
2.30
4.60
8.36
13.03
17.36
19.84
19.26
15.39
9.15
2.33
-3.16
-5.96
-5.75
-3.09
1.02
5.62
10.10
14.11
17.40
19.59
20.23
18.93
15.64
10.67
4.74
-1.17
-6.21
-9.77
-11.74
-12.37
-12.19
-11.69
-11.20
-10.80
-10.39
-9.87
-9.23
-8.58
-8.11
-7.98
-8.30
-9.04
-10.04
-10.96
-11.28
-10.35
-7.49
-2.22
5.60
15.68
27.41
40.00
52.60
64.45
74.83
83.11
88.85
91.84
92.15
90.13
86.18
80.63
73.70
65.66
57.05
48.69
41.30
35.21
30.04
24.89
18.88
11.64
3.64
-4.09
-10.54
-15.29
-18.65
-21.30
-23.76
-26.04
-27.68
-28.14
-27.21
-25.09
-22.23
-18.93
-15.08
-10.38
-4.55
2.27
9.39
15.83
20.62
23.14
23.24
21.15
17.29
12.17
6.41
0.77
-3.96
-7.13
-8.48
-8.27
-7.09
-5.60
-4.19
-2.93
-1.59
-0.02
1.79
3.63
5.23
6.38
7.01
7.23
7.18
6.98
6.64
6.03
4.97
3.23
0.79
-2.07
-4.73
-6.40
-6.45
-4.52
-0.69
4.58
10.50
16.09
20.31
22.22
21.29
17.58
11.77
5.01
-1.53
-7.01
-11.13
-14.00
-16.01
-17.49
-18.64
-19.54
-20.26
-20.91
-21.56
-22.24
-22.82
-23.21
-23.21
-22.77
-21.90
-20.78
-19.64
-18.83
-18.68
-19.47
-21.30
-23.92
-26.80
-29.08
-29.92
-28.74
-25.50
-20.66
-15.01
-9.32
-4.14
0.33
4.12
7.24
9.67
11.23
11.75
11.25
9.97
8.40
7.11
6.55
6.91
7.98
9.35
10.41
10.72
10.07
8.54
6.37
3.86
1.40
-0.53
-1.44
-1.06
0.38
2.04
2.71
1.39
-2.19
-7.28
-12.30
-15.66
-16.31
-14.15
-9.97
-4.83
0.35
5.06
9.03
12.04
13.78
13.94
12.45
9.63
6.04
2.51
-0.34
-2.23
-3.23
-3.71
-4.12
-4.76
-5.72
-6.89
-8.03
-8.92
-9.46
-9.72
-9.89
-10.21
-10.91
-12.15
-13.95
-16.22
-18.72
-21.05
-22.69
-23.21
-22.37
-20.21
-17.04
-13.34
-9.53
-5.92
-2.70
-0.02
1.95
3.08
3.27
2.56
1.16
-0.67
-2.65
-4.52
-5.92
-6.41
-5.59
-3.49
-0.65
1.87
2.99
2.12
-0.56
-4.16
-7.67
-10.47
-12.63
-14.76
-17.59
-21.53
-26.50
-32.10
-37.77
-43.02
-47.44
-50.69
-52.53
-52.89
-52.01
-50.22
-47.93
-45.46
-43.05
-40.97
-39.56
-39.21
-40.11
-42.00
-44.18
-45.65
-45.44
-42.93
-38.01
-30.98
-22.41
-12.91
-2.98
6.94
16.45
25.20
32.73
38.66
42.72
44.80
44.99
43.55
40.81
37.16
32.99
28.73
24.66
21.10
18.28
16.37
15.61
16.25
18.56
22.66
28.59
36.18
45.12
54.91
64.78
73.74
80.79
85.18
86.77
86.13
84.44
82.85
82.05
82.06
82.37
82.42
81.95
81.09
80.10
79.01
77.37
74.47
69.64
62.68
53.88
44.08
34.22
24.98
16.71
9.42
3.02
-2.37
-6.41
-8.64
-8.81
-7.04
-3.92
-0.33
2.90
5.24
6.52
6.85
6.49
5.72
4.76
3.82
3.09
2.65
2.48
2.41
2.25
1.85
1.22
0.46
-0.30
-0.99
-1.72
-2.54
-3.57
-4.89
-6.58
-8.79
-11.82
-15.95
-21.22
-27.10
-32.48
-36.06
-36.87
-34.86
-30.93
-26.58
-23.13
-21.10
-20.16
-19.54
-18.68
-17.66
-17.06
-17.55
-19.26
-21.68
-23.94
-25.32
-25.61
-25.14
-24.44
-23.90
-23.64
-23.50
-23.23
-22.71
-21.95
-21.12
-20.48
-20.22
-20.49
-21.26
-22.37
-23.48
-24.17
-24.04
-22.88
-20.68
-17.64
-13.97
-9.88
-5.59
-1.39
2.39
5.36
7.25
7.99
7.68
6.54
4.80
2.60
0.06
-2.68
-5.32
-7.62
-9.36
-10.55
-11.38
-12.13
-13.04
-14.20
-15.55
-16.79
-17.49
-17.18
-15.57
-12.82
-9.64
-7.11
-6.19
-7.25
-9.81
-12.64
-14.31
-13.78
-10.75
-5.67
0.62
7.24
13.55
19.18
23.81
27.19
29.06
29.30
28.05
25.64
22.63
19.55
16.71
14.13
11.58
8.75
5.47
1.87
-1.75
-4.98
-7.55
-9.41
-10.71
-11.72
-12.77
-14.20
-16.36
-19.46
-23.46
-27.88
-31.77
-33.97
-33.52
-30.09
-24.21
-17.00
-9.70
-3.29
1.80
5.59
8.28
9.90
10.42
9.69
7.86
5.39
2.92
1.05
0.02
-0.28
-0.08
0.45
1.30
2.42
3.65
4.51
4.41
2.93
0.04
-3.87
-8.25
-12.74
-17.32
-22.19
-27.52
-33.08
-38.22
-42.11
-44.07
-43.70
-40.97
-35.91
-28.54
-18.98
-7.48
5.15
17.48
27.63
33.67
34.34
29.58
20.96
11.44
4.84
4.72
13.19
30.09
52.77
76.78
97.21
110.17
113.84
108.70
96.96
81.52
65.13
49.88
37.24
28.25
23.63
23.69
28.07
35.67
44.91
54.20
62.34
68.85
73.69
76.91
78.46
77.98
75.08
69.61
61.94
52.92
43.57
34.72
26.62
18.90
10.91
2.10
-7.52
-17.33
-26.29
-33.47
-38.47
-41.58
-43.56
-45.27
-47.26
-49.61
-52.07
-54.38
-56.36
-58.10
-59.76
-61.55
-63.65
-66.10
-68.81
-71.50
-73.76
-75.09
-74.96
-73.03
-69.21
-63.68
-56.86
-49.24
-41.30
-33.33
-25.51
-17.96
-10.84
-4.37
1.22
5.73
9.12
11.52
13.29
14.84
16.51
18.49
20.78
23.22
25.64
27.87
29.81
31.37
32.37
32.58
31.68
29.43
25.79
20.86
14.91
8.21
0.96
-6.57
-14.13
-21.50
-28.63
-35.63
-42.60
-49.31
-55.04
-58.63
-58.92
-55.36
-48.30
-39.04
-29.28
-20.54
-13.66
-8.77
-5.50
-3.31
-1.81
-0.77
-0.07
0.39
0.70
1.03
1.57
2.37
3.34
4.17
4.48
3.98
2.69
0.87
-1.05
-2.75
-4.16
-5.49
-7.06
-9.08
-11.55
-14.23
-16.83
-19.15
-21.16
-22.98
-24.66
-26.07
-26.84
-26.51
-24.66
-21.09
-16.00
-9.85
-3.25
3.21
9.02
13.84
17.34
19.28
19.53
18.15
15.42
11.81
7.97
4.70
2.76
2.62
4.16
6.66
8.97
10.00
9.22
6.82
3.60
0.44
-2.09
-3.99
-5.58
-7.15
-8.70
-9.98
-10.76
-11.10
-11.40
-12.18
-13.76
-16.06
-18.61
-20.65
-21.44
-20.51
-17.73
-13.40
-8.10
-2.55
2.58
6.82
10.00
12.15
13.46
14.02
13.90
13.05
11.47
9.38
7.17
5.40
4.50
4.64
5.56
6.71
7.48
7.43
6.47
4.88
3.10
1.51
0.33
-0.45
-1.02
-1.49
-2.03
-2.78
-3.88
-5.58
-7.99
-11.03
-14.17
-16.56
-17.16
-15.34
-11.10
-5.30
0.72
5.63
8.77
10.22
10.69
10.98
11.53
12.24
12.64
12.29
11.13
9.49
7.92
6.86
6.47
6.59
6.95
7.33
7.64
7.93
8.20
8.36
8.18
7.43
6.00
4.01
1.72
-0.50
-2.40
-3.88
-5.03
-6.00
-6.89
-7.66
-8.13
-8.00
-7.02
-5.04
-2.15
1.33
4.87
7.94
10.07
10.99
10.66
9.25
7.08
4.55
2.07
0.05
-1.30
-1.83
-1.68
-1.12
-0.45
0.01
0.01
-0.56
-1.60
-2.69
-3.24
-2.79
-1.28
0.71
2.20
2.26
0.56
-2.50
-5.97
-8.85
-10.64
-11.39
-11.44
-11.05
-10.01
-7.87
-4.24
0.77
6.48
11.84
15.91
18.21
18.73
17.98
16.53
14.88
13.33
11.96
10.81
10.01
9.69
9.98
10.91
12.31
13.90
15.38
16.54
17.28
17.65
17.65
17.27
16.49
15.28
13.78
12.20
10.77
9.55
8.35
6.83
4.70
2.03
-0.70
-2.67
-3.06
-1.44
2.03
6.64
11.39
15.35
17.81
18.39
17.02
13.99
9.98
6.05
3.22
2.19
3.00
5.12
7.76
10.34
12.71
15.04
17.44
19.72
21.29
21.47
19.90
16.73
12.55
8.05
3.67
-0.51
-4.73
-9.46
-15.13
-22.12
-30.35
-39.20
-47.38
-53.19
-55.07
-52.16
-44.77
-34.26
-22.58
-11.49
-2.11
5.29
10.95
15.18
18.09
19.53
19.43
17.93
15.56
12.98
10.77
9.17
8.09
7.20
6.15
4.76
3.07
1.35
-0.06
-0.83
-0.76
0.06
1.32
2.44
2.80
1.91
-0.59
-4.79
-10.49
-17.09
-23.55
-28.59
-31.15
-30.89
-28.50
-25.48
-23.47
-23.54
-25.81
-29.60
-34.06
-38.65
-43.35
-48.22
-52.94
-56.71
-58.49
-57.60
-54.20
-49.27
-44.07
-39.57
-35.95
-32.67
-28.66
-22.91
-14.93
-4.93
6.19
17.11
26.54
33.64
38.17
40.43
41.00
40.34
38.52
35.39
30.79
24.75
17.69
10.16
2.60
