1543661119.00
64.000000
-0.00
-0.00
-0.00
-0.00
-0.00
-0.00
-0.00
-0.00
-0.00
-0.00
0.00
0.01
0.01
-0.00
-0.03
-0.05
-0.05
0.00
0.13
0.36
0.66
1.01
1.37
1.72
2.06
2.40
2.79
3.24
3.80
4.42
5.06
5.66
6.20
6.68
7.15
7.68
8.31
9.14
10.09
11.04
11.88
12.56
13.14
13.76
14.65
15.96
17.91
20.32
22.90
25.38
27.58
29.57
31.68
34.32
37.81
42.54
48.15
54.10
59.83
64.97
69.58
74.14
79.34
85.71
93.76
103.00
112.62
121.73
129.77
136.75
143.30
150.75
157.77
166.64
177.95
191.79
206.97
220.57
228.25
225.36
208.53
176.87
132.76
80.05
23.07
-34.94
-92.44
-149.16
-205.23
-260.37
-313.74
-363.87
-409.83
-450.91
-486.50
-515.74
-537.23
-549.22
-549.96
-538.37
-514.21
-478.67
-433.88
-382.45
-327.02
-269.84
-212.63
-156.66
-102.95
-52.37
-5.90
35.58
71.43
101.35
125.50
144.38
158.69
169.15
176.37
180.75
182.57
182.07
179.50
175.23
169.66
163.19
156.17
148.83
141.30
133.66
125.94
118.20
110.50
102.94
95.58
88.47
81.61
75.02
68.69
62.62
56.86
51.42
46.31
41.55
37.11
32.97
29.08
25.44
22.04
18.92
16.10
13.60
11.42
9.50
7.79
6.19
4.67
3.23
1.93
0.85
0.05
-0.50
-0.91
-1.31
-1.85
-2.60
-3.51
-4.43
-5.18
-5.65
-5.84
-5.89
-6.04
-6.49
-7.32
-8.43
-9.61
-10.59
-11.26
-11.63
-11.83
-12.09
-12.51
-13.16
-14.15
-15.66
-17.81
-20.33
-22.45
-22.96
-20.75
-15.42
-7.70
0.80
8.22
13.28
15.73
16.18
15.62
14.82
14.15
13.70
13.53
13.84
14.88
16.74
19.11
21.34
22.65
22.61
21.28
19.34
17.74
17.24
18.05
19.60
20.74
20.34
17.78
13.39
8.38
4.28
2.34
3.01
5.88
9.96
14.09
17.45
19.70
21.01
21.80
22.43
22.98
23.20
22.70
21.19
18.59
15.02
10.60
5.40
-0.85
-8.16
-16.09
-23.63
-29.53
-32.85
-33.49
-32.30
-30.62
-29.57
-29.33
-29.17
-27.87
-24.42
-18.65
-11.26
-3.55
3.16
7.91
10.29
10.34
8.40
4.95
0.56
-4.05
-8.09
-10.69
-11.19
-9.54
-6.46
-3.42
-2.09
-3.51
-7.47
-12.41
-16.05
-16.53
-13.25
-7.07
0.36
7.55
13.75
18.91
23.15
26.23
27.54
26.52
23.29
18.85
14.72
12.18
11.60
12.33
13.13
12.86
10.94
7.42
2.71
-2.82
-9.04
-15.83
-22.87
-29.48
-34.02
-34.87
-30.87
-21.84
-8.80
6.21
20.69
32.33
39.68
42.35
40.93
36.60
30.73
24.44
18.41
12.91
7.92
3.30
-1.15
-5.71
-10.65
-16.18
-22.44
-29.35
-36.63
-43.67
-49.64
-53.57
-54.76
-53.06
-49.09
-44.07
-39.44
-36.13
-34.30
-33.37
-32.47
-31.12
-29.46
-28.18
-28.00
-29.14
-31.16
-33.05
-33.69
-32.14
-27.88
-20.83
-11.26
0.24
12.91
25.87
38.22
49.13
57.92
64.09
67.42
68.07
66.53
63.53
59.82
55.87
51.75
47.13
41.42
34.15
25.20
14.91
4.10
-6.15
-14.73
-20.77
-23.85
-24.16
-22.43
-19.77
-17.31
-15.87
-15.66
-16.22
-16.63
-15.94
-13.72
-10.37
-7.09
-5.48
-6.83
-11.57
-19.04
-27.73
-35.85
-41.81
-44.56
-43.61
-38.97
-30.98
-20.34
-8.10
4.48
16.14
25.86
33.10
37.79
40.16
40.54
39.22
36.40
32.31
27.29
21.91
16.95
13.29
11.68
12.54
15.75
20.63
26.27
31.69
36.22
39.50
41.43
41.97
41.07
38.67
34.89
30.14
25.13
20.69
17.49
15.75
15.18
14.93
13.80
10.49
4.10
-5.59
-17.83
-30.98
-42.91
-51.53
-55.40
-54.04
-47.95
-38.25
-26.37
-13.64
-1.24
9.83
18.77
24.99
28.30
28.93
27.47
24.70
21.31
17.82
14.51
11.55
9.03
7.04
5.63
4.79
4.50
4.70
5.39
6.50
7.88
9.20
10.00
9.87
8.55
6.08
2.75
-1.05
-4.95
-8.69
-12.16
-15.37
-18.42
-21.52
-24.98
-29.16
-34.23
-40.00
-45.80
-50.46
-52.64
-51.24
-45.78
-36.62
-24.86
-12.02
0.38
11.17
19.68
25.68
29.26
30.62
30.04
27.88
24.65
20.97
17.45
14.53
12.33
10.65
9.15
7.58
5.92
4.42
3.40
3.11
3.50
4.24
4.81
4.60
3.16
0.23
-4.06
-9.26
-14.65
-19.45
-23.07
-25.39
-26.78
-28.01
-29.89
-33.01
-37.48
-42.82
-48.05
-51.87
-52.94
-50.31
-43.62
-33.25
-20.28
-6.15
7.64
19.86
29.66
36.69
40.99
42.90
42.95
41.67
39.54
36.82
33.69
30.25
26.71
23.31
20.36
18.03
16.37
15.36
14.90
14.85
15.02
15.10
14.73
13.71
12.14
10.41
9.00
8.09
7.45
6.37
4.12
0.37
-4.60
-9.96
-14.83
-18.61
-21.31
-23.46
-25.79
-28.99
-33.39
-38.98
-45.37
-51.85
-57.51
-61.30
-62.22
-59.54
-53.03
-43.03
-30.47
-16.61
-2.84
9.62
19.97
27.85
33.33
36.66
38.18
38.17
36.89
34.63
31.80
28.87
26.31
24.44
23.40
23.11
23.35
23.87
24.48
25.11
25.74
26.30
26.64
26.52
25.62
23.77
20.99
17.59
13.95
10.42
7.14
4.00
0.79
-2.63
-6.26
-10.00
-13.81
-17.75
-21.92
-26.32
-30.71
-34.71
-38.03
-40.73
-43.33
-46.50
-50.71
-55.70
-60.45
-63.40
-63.05
-58.59
-50.12
-38.67
-25.68
-12.55
-0.27
10.65
19.96
27.54
33.17
36.71
38.18
37.88
36.39
34.35
32.24
30.24
28.35
26.53
24.90
23.75
23.33
23.76
24.85
26.28
27.64
28.75
29.57
30.11
30.31
29.95
28.73
26.46
23.24
19.43
15.54
11.98
8.95
6.37
4.04
1.73
-0.68
-3.26
-6.07
-9.22
-12.80
-16.85
-21.24
-25.65
-29.71
-33.09
-35.74
-37.90
-40.06
-42.72
-46.20
-50.40
-54.84
-58.67
-60.96
-60.80
-57.62
-51.20
-41.78
-30.02
-16.92
-3.67
8.57
18.86
26.63
31.81
34.67
35.75
35.59
34.65
33.23
31.51
29.63
27.77
26.15
25.02
24.49
24.49
24.83
25.23
25.57
25.85
26.21
26.73
27.29
27.60
27.25
25.98
23.75
20.79
17.50
14.22
11.09
8.05
4.93
1.65
-1.70
-4.88
-7.62
-9.81
-11.59
-13.32
-15.41
-18.07
-21.24
-24.58
-27.63
-30.10
-32.00
-33.76
-35.99
-39.23
-43.61
-48.72
-53.65
-57.21
-58.36
-56.42
-51.23
-43.09
-32.64
-20.70
-8.18
4.01
14.99
24.03
30.68
34.77
36.50
36.27
34.62
32.17
29.42
26.79
24.51
22.68
21.26
20.20
19.49
19.19
19.38
20.07
21.15
22.41
23.59
24.45
24.83
24.60
23.60
21.75
19.02
15.55
11.58
7.41
3.30
-0.60
-4.18
-7.36
-10.06
-12.30
-14.22
-16.07
-18.05
-20.19
-22.29
-24.07
-25.41
-26.50
-27.83
-29.92
-33.07
-37.18
-41.75
-46.09
-49.44
-51.18
-50.79
-47.96
-42.60
-34.92
-25.42
-14.84
-4.01
6.27
15.30
22.54
27.69
30.71
31.81
31.44
30.04
28.01
25.61
23.01
20.42
18.09
16.31
15.31
15.14
15.74
16.90
18.40
20.04
21.60
22.89
23.65
23.65
22.73
20.85
18.13
14.86
11.42
8.20
5.49
3.33
1.53
-0.27
-2.48
-5.32
-8.78
-12.60
-16.43
-19.87
-22.70
-24.90
-26.64
-28.28
-30.24
-32.93
-36.51
-40.75
-45.05
-48.48
-50.16
-49.43
-46.01
-40.03
-31.88
-22.11
-11.34
-0.30
10.18
19.25
26.20
30.64
32.67
32.75
31.57
29.75
27.68
25.48
23.10
20.54
17.88
15.36
13.32
12.05
11.71
12.31
13.68
15.51
17.36
18.71
19.11
18.31
16.38
13.71
10.83
8.24
6.13
4.44
2.85
1.02
-1.29
-4.14
-7.38
-10.77
-14.03
-16.96
-19.51
-21.81
-24.18
-27.01
-30.64
-35.09
-39.99
-44.65
-48.19
-49.76
-48.74
-44.83
-38.13
-29.11
-18.55
-7.44
3.22
12.56
20.01
25.38
28.77
30.52
30.93
30.29
28.78
26.58
23.87
20.86
17.80
14.93
12.52
10.79
9.98
10.20
11.42
13.36
15.57
17.46
18.54
18.57
17.58
15.86
13.73
11.47
9.20
6.92
4.60
2.18
-0.39
-3.18
-6.30
-9.77
-13.47
-17.13
-20.46
-23.30
-25.84
-28.51
-31.85
-36.20
-41.41
-46.89
-51.80
-55.26
-56.57
-55.31
-51.30
-44.58
-35.49
-24.62
-12.89
-1.27
9.31
18.19
25.08
30.02
33.29
35.21
36.08
36.05
35.18
33.48
31.04
28.04
24.84
21.86
19.48
17.98
17.39
17.63
18.54
19.97
21.69
23.43
24.81
25.46
25.08
23.55
21.00
17.78
14.33
11.04
8.11
5.50
2.96
0.19
-3.07
-6.82
-10.92
-15.06
-18.99
-22.55
-25.76
-28.79
-31.84
-35.14
-38.88
-43.16
-47.89
-52.70
-56.85
-59.40
-59.40
-56.23
-49.79
-40.51
-29.22
-16.90
-4.51
7.13
17.34
25.63
31.78
35.85
38.10
38.92
38.60
37.30
35.11
32.17
28.83
25.54
22.79
20.89
19.92
19.78
20.31
21.38
22.86
24.58
26.20
27.33
27.59
26.81
25.06
22.64
19.92
17.18
14.54
11.87
8.98
5.72
2.05
-1.94
-6.13
-10.37
-14.54
-18.51
-22.13
-25.24
-27.80
-29.98
-32.17
-34.88
-38.54
-43.28
-48.77
-54.27
-58.76
-61.25
-61.01
-57.69
-51.37
-42.46
-31.64
-19.69
-7.47
4.20
14.55
23.01
29.29
33.38
35.49
36.01
35.40
34.05
32.29
30.36
28.41
26.59
25.02
23.87
23.29
23.42
24.24
25.58
27.11
28.46
29.33
29.61
29.34
28.63
27.54
25.98
23.85
21.06
17.67
13.92
10.13
6.62
3.52
0.77
-1.84
-4.61
-7.71
-11.20
-14.99
-18.90
-22.77
-26.54
-30.33
-34.35
-38.85
-43.93
-49.46
-54.94
-59.60
-62.51
-62.79
-59.85
-53.56
-44.25
-32.62
-19.63
-6.29
6.47
17.89
27.45
34.93
40.31
43.75
45.41
45.40
43.72
40.39
35.50
29.41
22.77
16.37
11.05
7.47
6.05
6.95
10.02
14.84
20.74
26.79
31.96
35.31
36.23
34.62
30.90
25.90
20.60
15.90
12.45
10.53
10.05
10.64
11.70
12.50
12.30
10.49
6.70
0.96
-6.32
-14.45
-22.69
-30.49
-37.66
-44.32
-50.77
-57.21
-63.60
-69.55
-74.35
-77.15
-77.09
-73.57
-66.40
-55.88
-42.87
-28.53
-14.14
-0.77
10.86
20.38
27.68
32.78
35.75
36.74
36.04
34.11
31.51
28.75
26.23
24.14
22.54
21.46
20.97
21.23
22.32
24.19
26.49
28.67
30.12
30.40
29.42
27.39
24.79
22.00
19.30
16.72
14.23
11.77
9.32
6.82
4.10
0.98
-2.75
-7.09
-11.80
-16.45
-20.59
-23.98
-26.66
-29.00
-31.54
-34.76
-38.97
-44.16
-49.99
-55.82
-60.78
-63.91
-64.33
-61.41
-54.91
-45.09
-32.67
-18.76
-4.64
8.49
19.69
28.41
34.52
38.17
39.66
39.43
37.86
35.38
32.42
29.37
26.62
24.48
23.18
22.81
23.32
24.49
26.00
27.51
28.80
29.77
30.42
30.71
30.50
29.56
27.66
24.80
21.23
17.43
13.85
10.70
7.89
5.08
1.88
-1.85
-6.02
-10.30
-14.33
-17.86
-20.85
-23.39
-25.71
-28.08
-30.79
-34.10
-38.23
-43.12
-48.41
-53.30
-56.70
-57.51
-54.90
-48.60
-39.04
-27.14
-14.16
-1.32
10.38
20.33
28.20
33.94
37.56
39.24
39.27
38.16
36.58
35.13
34.19
33.68
33.26
32.51
31.27
29.73
28.32
27.41
27.10
27.15
27.18
26.85
26.04
24.79
23.14
21.12
18.72
15.99
13.14
10.37
7.78
5.18
2.15
-1.77
-6.75
-12.52
-18.41
-23.58
-27.42
-29.81
-31.22
-32.58
-34.82
-38.54
-43.78
-50.05
-56.53
-62.33
-66.66
-68.89
-68.45
-64.88
-57.99
-48.03
-35.79
-22.54
-9.67
1.73
11.04
18.17
23.34
26.76
28.55
28.77
27.51
25.13
22.23
19.55
17.69
16.97
17.35
18.52
20.12
21.87
23.54
24.99
26.08
26.65
26.67
26.15
25.25
24.05
22.52
20.51
17.79
14.31
10.23
5.89
1.56
-2.68
-6.95
-11.44
-16.19
-21.00
-25.56
-29.61
-33.14
-36.41
-39.87
-43.98
-49.09
-55.30
-62.39
-69.77
-76.39
-80.88
-81.86
-78.36
-70.23
-58.23
-43.92
-29.06
-15.21
-3.34
6.20
13.52
18.88
22.54
24.63
25.29
24.84
23.82
22.91
22.78
23.89
26.35
29.98
34.44
39.41
44.62
49.83
54.74
58.89
61.77
62.93
62.21
59.77
56.04
51.55
46.78
42.01
37.32
32.54
27.41
21.64
15.06
7.79
0.24
-6.99
-13.30
-18.35
-22.20
-25.30
-28.35
-32.06
-36.83
-42.69
-49.16
-55.41
-60.35
-62.92
-62.19
-57.59
-49.05
-37.04
-22.55
-6.93
8.31
21.83
32.65
40.33
44.96
46.98
47.02
45.66
43.31
40.20
36.46
32.26
27.95
24.01
21.01
19.42
19.46
21.05
23.82
27.24
30.76
33.89
36.16
37.18
36.61
34.34
30.53
25.62
20.25
14.96
10.06
5.60
1.43
-2.61
-6.60
-10.49
-14.27
-17.94
-21.57
-25.26
-29.07
-33.04
-37.22
-41.66
-46.43
-51.49
-56.57
-61.08
-64.19
-64.93
-62.44
-56.31
-46.67
-34.25
-20.15
-5.60
8.28
20.61
30.73
38.10
42.31
43.19
40.98
36.40
30.60
24.87
20.26
17.38
16.33
16.87
18.62
21.23
24.39
27.79
31.06
33.80
35.66
36.40
35.92
34.27
31.64
28.17
24.10
19.67
15.16
10.87
7.04
3.68
0.64
-2.38
-5.64
-9.24
-13.02
-16.69
-20.01
-22.93
-25.74
-28.91
-32.91
-38.04
-44.31
-51.49
-59.15
-66.65
-73.10
-77.39
-78.29
-74.79
-66.41
-53.45
-37.01
-18.75
-0.52
16.02
29.67
39.84
46.50
50.05
51.13
50.38
48.32
45.30
41.55
37.36
33.10
29.28
26.40
24.88
24.83
26.13
28.44
31.34
34.37
37.12
39.20
40.27
40.10
38.56
35.74
31.91
27.48
22.90
18.52
14.49
10.71
6.95
2.95
-1.42
-6.09
-10.82
-15.29
-19.22
-22.48
-25.10
-27.30
-29.40
-31.77
-34.78
-38.70
-43.57
-49.11
-54.53
-58.70
-60.24
-57.97
-51.26
-40.32
-26.23
-10.67
4.57
18.06
29.00
37.22
42.91
46.30
47.51
46.62
43.78
39.43
34.27
29.09
24.57
21.06
18.60
17.01
16.08
15.74
16.02
16.99
18.66
20.77
22.91
24.48
24.94
23.93
21.40
17.62
13.11
8.46
4.11
0.25
-3.26
-6.72
-10.47
-14.66
-19.20
-23.78
-28.03
-31.71
-34.87
-37.79
-40.90
-44.61
-49.13
-54.35
-59.91
-65.08
-68.89
-70.23
-68.05
-61.71
-51.27
-37.54
-21.96
-6.17
8.41
20.90
30.95
38.54
43.70
46.41
46.58
44.37
40.24
35.00
29.48
24.34
19.93
16.35
13.70
12.11
11.82
12.90
15.12
17.94
20.63
22.55
23.42
23.26
22.30
20.70
18.46
15.45
11.52
6.73
1.35
-4.24
-9.66
-14.75
-19.51
-24.02
-28.29
-32.18
-35.56
-38.44
-41.18
-44.38
-48.57
-53.85
-59.62
-64.54
-67.00
-65.57
-59.61
-49.34
-35.79
-20.41
-4.67
10.14
22.96
33.06
40.06
43.97
45.26
44.70
43.08
40.92
38.33
35.12
31.14
26.59
22.11
18.57
16.69
16.66
18.10
20.24
22.24
23.44
23.45
22.10
19.35
15.30
10.25
4.74
-0.52
-4.94
-8.25
-10.55
-12.28
-13.92
-15.85
-18.33
-21.55
-25.78
-31.35
-38.49
-47.17
-56.90
-66.68
-75.16
-80.92
-82.71
-79.76
-71.94
-59.81
-44.56
-27.74
-11.03
4.16
16.86
26.63
33.50
37.77
39.84
40.09
38.77
36.16
32.55
28.37
24.16
20.47
17.74
16.25
16.06
17.09
19.17
22.01
25.27
28.42
30.84
31.98
31.52
29.53
26.31
22.30
17.77
12.73
7.07
0.66
-6.36
-13.59
-20.48
-26.57
-31.77
-36.41
-41.12
-46.52
-52.92
-60.07
-67.20
-73.07
-76.35
-75.88
-71.02
-61.78
-48.86
-33.44
-16.92
-0.69
14.17
26.96
37.29
45.08
50.30
53.03
53.37
51.57
48.01
43.23
37.83
32.41
27.48
23.39
20.37
18.49
17.74
18.01
19.13
20.79
22.58
24.02
24.65
24.16
22.49
19.84
16.50
12.76
8.71
4.30
-0.61
-5.99
-11.58
-16.92
-21.55
-25.24
-28.14
-30.80
-33.97
-38.33
-44.25
-51.55
-59.54
-67.06
-72.68
-75.01
-73.03
-66.35
-55.29
-40.83
-24.40
-7.57
8.27
22.04
33.10
41.23
46.52
49.25
49.84
48.72
46.37
43.26
39.87
36.61
33.81
31.67
30.27
29.62
29.65
30.33
31.59
33.28
35.09
36.57
37.19
36.47
34.17
30.34
25.37
19.77
14.10
8.71
3.73
-0.99
-5.73
-10.72
-16.03
-21.50
-26.78
-31.49
-35.45
-38.77
-41.94
-45.68
-50.66
-57.11
-64.56
-71.79
-77.06
-78.63
-75.30
-66.80
-53.86
-37.90
-20.64
-3.62
12.04
25.54
36.39
44.26
48.99
50.70
49.80
47.00
43.17
39.10
35.36
32.29
29.98
28.48
27.84
28.15
29.45
31.60
34.28
36.93
38.96
39.90
39.49
37.74
34.82
30.96
26.34
21.12
15.47
9.66
4.04
-1.04
-5.44
-9.32
-13.08
-17.19
-21.87
-27.03
-32.17
-36.75
-40.39
-43.23
-45.84
-49.06
-53.55
-59.50
-66.42
-73.18
-78.25
-80.05
-77.36
-69.63
-57.14
-41.03
-22.95
-4.78
11.85
25.78
36.47
43.92
48.47
50.62
50.91
49.75
47.51
44.51
41.12
37.75
34.83
32.77
31.78
31.85
32.77
34.26
36.02
37.81
39.44
40.63
40.96
39.99
37.41
33.26
27.99
22.32
17.00
12.43
8.65
5.35
2.10
-1.40
-5.34
-9.70
-14.44
-19.46
-24.57
-29.49
-33.93
-37.70
-40.93
-44.01
-47.53
-52.01
-57.74
-64.58
-71.85
-78.35
-82.55
-82.84
-78.07
-67.90
-53.07
-35.23
-16.48
1.20
16.41
28.53
37.54
43.73
47.43
48.87
48.26
45.89
42.21
37.84
33.50
29.89
27.55
26.75
27.43
29.27
31.81
34.56
37.11
39.15
40.48
40.95
40.38
38.68
35.76
31.73
26.83
21.49
16.20
11.37
7.19
3.54
-0.01
-3.98
-8.76
-14.36
-20.37
-26.07
-30.81
-34.25
-36.58
-38.40
-40.50
-43.60
-48.06
-53.91
-60.75
-67.77
-73.80
-77.47
-77.43
-72.73
-63.14
-49.32
-32.61
-14.77
2.45
17.72
30.21
39.60
45.94
49.49
50.69
50.01
47.98
45.02
41.47
37.59
33.66
30.09
27.40
26.09
26.43
28.32
31.25
34.53
37.46
39.59
40.69
40.68
39.54
37.24
33.83
29.49
24.53
19.30
14.12
9.23
4.68
0.46
-3.54
-7.45
-11.46
-15.76
-20.44
-25.46
-30.57
-35.42
-39.66
-43.05
-45.63
-47.72
-49.91
-52.96
-57.58
-64.04
-71.91
-79.89
-86.03
-88.29
-85.17
-76.28
-62.39
-45.18
-26.61
-8.43
8.16
22.47
34.13
42.97
48.97
52.28
53.28
52.53
50.62
48.06
45.22
42.38
39.78
37.72
36.50
36.39
37.47
39.58
42.28
44.93
46.88
47.64
47.05
45.25
42.58
39.40
35.92
32.17
28.11
23.65
18.85
13.87
8.98
4.41
0.32
-3.35
-6.82
-10.44
-14.51
-19.10
-24.03
-28.92
-33.37
-37.12
-40.13
-42.60
-44.85
-47.28
-50.37
-54.57
-60.19
-67.12
-74.61
-81.25
-85.21
-84.75
-78.73
-67.07
-50.75
-31.59
-11.77
6.66
22.23
34.24
42.69
48.09
51.03
52.03
51.38
49.28
46.00
42.00
37.89
34.29
31.67
30.20
29.80
30.29
31.46
33.13
35.16
37.29
39.13
40.20
40.07
38.51
35.61
31.81
27.68
23.74
20.20
16.94
13.62
9.86
5.52
0.77
-4.03
-8.45
-12.27
-15.52
-18.47
-21.48
-24.83
-28.56
-32.47
-36.17
-39.38
-42.02
-44.32
-46.69
-49.59
-53.34
-57.99
-63.31
-68.75
-73.40
-76.04
-75.24
-69.81
-59.19
-43.84
-25.38
-6.11
11.65
26.18
36.84
43.89
48.11
50.27
50.85
50.00
47.74
44.22
39.85
35.19
30.84
27.21
24.50
22.76
21.91
21.90
22.75
24.48
27.04
30.20
33.56
36.59
38.79
39.81
39.57
38.22
36.00
33.07
29.47
25.12
19.97
14.16
8.06
2.26
-2.74
-6.69
-9.74
-12.41
-15.30
-18.86
-23.14
-27.77
-32.15
-35.71
-38.32
-40.30
-42.45
-45.69
-50.71
-57.68
-66.14
-75.02
-82.87
-88.10
-89.31
-85.60
-76.75
-63.35
-46.70
-28.54
-10.68
5.34
18.50
28.32
34.76
38.11
38.88
37.63
35.01
31.57
27.79
24.02
20.50
17.50
15.33
14.32
14.78
16.90
20.61
25.61
31.37
37.19
42.24
45.76
47.23
46.46
43.65
39.25
33.79
27.76
21.54
15.46
9.83
4.99
1.20
-1.35
-2.63
-2.73
-1.78
-0.06
2.10
4.16
5.49
5.43
3.52
-0.43
-6.28
-13.74
-22.51
-32.38
-43.18
-54.68
-66.34
-77.16
-85.71
-90.42
-89.93
-83.60
-71.82
-55.93
-37.92
-19.89
-3.55
10.13
20.81
28.59
33.73
36.40
36.76
35.09
31.87
27.81
23.77
20.46
18.37
17.69
18.33
20.06
22.58
25.60
28.81
31.92
34.64
36.70
37.83
37.83
36.56
34.02
30.38
25.95
21.12
16.28
11.69
7.46
3.59
0.02
-3.35
-6.68
-10.16
-13.98
-18.29
-23.07
-28.12
-33.09
-37.60
-41.50
-44.85
-47.98
-51.42
-55.62
-60.87
-67.12
-73.82
-79.94
-84.05
-84.66
-80.59
-71.38
-57.50
-40.27
-21.52
-3.10
13.46
27.24
37.90
45.58
50.62
53.45
54.38
53.62
51.32
47.68
43.10
38.15
33.49
29.75
27.35
26.50
27.20
29.30
32.45
36.15
39.72
42.43
43.66
43.12
40.90
37.42
33.15
28.54
23.86
19.23
14.73
10.36
6.14
2.04
-2.05
-6.23
-10.66
-15.41
-20.46
-25.67
-30.76
-35.41
-39.37
-42.54
-45.12
-47.55
-50.46
-54.45
-59.84
-66.45
-73.49
-79.56
-82.97
-82.08
-75.89
-64.37
-48.55
-30.23
-11.49
5.88
20.75
32.62
41.45
47.37
50.56
51.22
49.65
46.40
42.15
37.59
33.28
29.56
26.62
24.63
23.81
24.36
26.36
29.63
33.72
37.85
41.15
42.83
42.40
39.84
35.47
29.96
24.07
18.43
13.44
9.11
5.22
1.40
-2.69
-7.25
-12.29
-17.64
-22.99
-27.99
-32.30
-35.80
-38.61
-41.20
-44.31
-48.66
-54.70
-62.28
-70.42
-77.52
-81.64
-81.18
-75.27
-64.08
-48.75
-30.96
-12.55
4.90
20.25
32.83
42.32
48.67
52.09
52.96
51.81
49.21
45.68
41.57
37.17
32.73
28.64
25.42
23.61
23.63
25.52
28.87
32.87
36.56
39.17
40.23
39.73
37.94
35.23
31.95
28.37
24.69
21.02
17.49
14.09
10.76
7.37
3.80
0.01
-3.97
-8.01
-11.99
-15.85
-19.55
-23.09
-26.50
-29.87
-33.46
-37.71
-43.10
-50.04
-58.51
-67.90
-76.95
-83.97
-87.23
-85.45
-78.13
-65.66
-49.23
-30.49
-11.19
7.12
23.26
36.46
46.32
52.74
55.89
56.17
54.19
50.67
46.34
41.86
37.71
34.23
31.63
30.03
29.55
30.25
32.08
34.81
37.94
40.85
42.87
43.49
42.50
40.04
36.44
32.07
27.28
22.31
17.33
12.55
8.14
4.17
0.59
-2.83
-6.36
-10.28
-14.67
-19.47
-24.43
-29.23
-33.55
-37.16
-40.00
-42.19
-44.09
-46.24
-49.21
-53.50
-59.28
-66.31
-73.79
-80.44
-84.65
-84.84
-79.93
-69.66
-54.77
-36.84
-17.88
0.18
15.92
28.58
38.06
44.66
48.81
50.85
51.05
49.56
46.60
42.47
37.66
32.77
28.53
25.62
24.52
25.42
28.04
31.78
35.79
39.24
41.53
42.36
41.75
39.86
36.90
33.08
28.62
23.78
18.86
14.09
9.54
5.11
0.65
-3.94
-8.63
-13.29
-17.73
-21.87
-25.66
-29.17
-32.41
-35.48
-38.52
-41.85
-45.84
-50.86
-57.00
-63.90
-70.68
-76.00
-78.32
-76.31
-69.16
-57.01
-40.87
-22.50
-3.96
12.97
27.09
37.91
45.53
50.25
52.40
52.19
49.88
45.87
40.78
35.33
30.21
25.93
22.81
20.95
20.41
21.11
22.82
25.12
27.41
29.05
29.52
28.57
26.23
22.73
18.42
13.64
8.63
3.51
-1.70
-6.98
-12.27
-17.36
-21.93
-25.63
-28.23
-29.72
-30.39
-30.73
-31.24
-32.27
-33.88
-35.90
-38.01
-39.89
-41.37
-42.54
-43.79
-45.69
-48.84
-53.55
-59.66
-66.46
-72.75
-77.00
-77.61
-73.22
-63.03
-47.12
-26.58
-3.46
19.52
39.65
54.87
64.30
68.26
68.03
65.12
60.83
55.94
50.81
45.66
40.79
36.69
33.88
32.77
33.54
36.08
39.99
44.69
49.46
53.56
56.41
57.64
57.24
55.35
52.19
47.98
42.96
37.53
32.21
27.56
23.89
21.12
18.73
16.01
12.35
7.52
1.70
-4.67
-11.01
-16.84
-21.76
-25.49
-27.89
-29.08
-29.51
-29.95
-31.44
-35.00
-41.40
-50.78
-62.43
-74.67
-85.12
-91.27
-91.15
-83.95
-70.15
-51.30
-29.59
-7.36
13.28
30.58
43.34
51.03
53.98
53.32
50.60
47.27
44.25
41.70
39.37
36.94
34.42
32.11
30.44
29.65
29.67
30.26
31.19
32.27
33.36
34.16
34.19
32.98
30.35
26.65
22.79
19.78
18.32
18.35
19.15
19.60
18.76
16.26
12.32
7.58
2.68
-1.91
-5.96
-9.35
-12.02
-13.87
-14.91
-15.26
-15.12
-14.63
-13.89
-12.96
-12.05
-11.67
-12.49
-15.11
-19.75
-25.97
-32.75
-38.71
-42.44
-42.85
-39.39
-32.09
-21.56
-8.85
4.74
17.93
29.69
39.41
46.89
52.16
55.36
56.57
55.84
53.39
49.65
45.27
40.98
37.33
34.60
32.74
31.58
31.02
31.04
31.67
32.77
33.93
34.46
33.64
30.93
26.18
19.69
12.09
4.13
-3.55
-10.56
-16.83
-22.55
-27.97
-33.31
-38.55
-43.46
-47.64
-50.72
-52.54
-53.20
-53.13
-52.84
-52.81
-53.22
-53.93
-54.50
-54.53
-53.86
-52.80
-52.09
-52.65
-55.25
-60.13
-66.89
-74.50
-81.49
-86.26
-87.39
-83.92
-75.61
-63.02
-47.42
-30.52
-14.10
0.51
12.52
21.82
28.69
33.55
36.66
38.06
37.65
35.41
31.61
26.83
21.90
17.69
14.98
14.23
15.62
18.96
23.69
28.95
33.73
37.07
38.39
37.61
35.13
31.62
27.71
23.74
19.83
15.93
12.02
8.19
4.60
1.41
-1.40
-3.97
-6.57
-9.47
-12.84
-16.72
-21.08
-25.88
-31.05
-36.51
-42.08
-47.44
-52.24
-56.23
-59.46
-62.20
-64.84
-67.47
-69.62
-70.22
-68.00
-62.02
-52.17
-39.27
-24.75
-10.09
3.60
15.79
26.37
35.29
42.36
47.24
49.64
49.59
47.56
44.33
40.73
37.40
34.60
32.31
30.50
29.22
28.79
29.54
31.62
34.80
38.36
41.38
43.04
42.85
40.89
37.66
33.86
30.19
27.13
24.83
23.14
21.66
19.87
17.17
13.06
7.19
-0.50
-9.64
-19.48
-28.90
-36.71
-42.03
-44.55
-44.67
-43.27
-41.39
-39.94
-39.51
-40.49
-43.23
-47.91
-54.36
-61.64
-67.97
-71.03
-68.74
-60.12
-45.74
-27.58
-8.36
9.41
24.01
34.83
42.10
46.47
48.66
49.27
48.66
47.04
44.54
41.24
37.35
33.29
29.63
26.97
25.74
25.98
27.42
29.61
32.07
34.41
36.31
37.41
37.31
35.69
32.51
28.04
22.87
17.67
12.91
8.75
5.00
1.37
-2.45
-6.58
-11.00
-15.54
-19.99
-24.09
-27.72
-30.94
-34.00
-37.39
-41.56
-46.78
-52.90
-59.19
-64.51
-67.46
-66.86
-62.04
-53.08
-40.87
-26.84
-12.59
0.55
11.77
20.85
27.95
33.32
37.05
39.01
39.02
37.00
33.17
28.10
22.64
17.75
14.38
13.23
14.61
18.31
23.59
29.49
35.04
39.56
42.81
44.87
46.05
46.78
47.45
48.29
49.19
49.54
48.28
44.17
36.41
25.19
11.88
-1.32
-12.29
-19.72
-23.65
-25.30
-26.44
-28.71
-33.08
-39.72
-48.02
-56.83
-64.66
-70.00
-71.56
-68.62
-61.23
-50.25
-37.09
-23.38
-10.59
0.23
8.51
14.03
16.96
17.62
16.55
14.30
11.45
8.47
5.70
3.38
1.71
0.88
1.13
2.58
5.17
8.50
11.91
14.69
16.28
16.49
15.53
13.84
11.90
9.97
8.06
5.97
3.44
0.26
-3.64
-8.15
-13.07
-18.11
-23.03
-27.65
-31.91
-35.92
-39.87
-44.10
-48.89
-54.41
-60.54
-66.70
-71.92
-74.87
-74.27
-69.25
-59.67
-46.26
-30.41
-13.83
1.87
15.51
26.42
34.41
39.64
42.43
43.19
42.35
40.34
37.55
34.35
30.98
27.59
24.28
21.19
18.61
16.93
16.53
17.60
20.03
23.29
26.61
29.23
30.56
30.38
28.78
26.06
22.63
18.84
14.91
10.97
6.93
2.64
-2.05
-7.15
-12.44
-17.57
-22.15
-26.03
-29.33
-32.52
-36.19
-40.84
-46.61
-53.19
-59.76
-65.18
-68.19
-67.67
-62.98
-54.12
-41.77
-27.17
-11.74
3.15
16.50
27.66
36.33
42.43
46.02
47.32
46.64
44.45
41.28
37.64
33.97
30.64
27.97
26.18
25.40
25.64
26.74
28.45
30.45
32.40
34.01
34.99
35.10
34.16
32.10
28.97
24.97
20.43
15.72
11.14
6.88
2.92
-0.93
-4.92
-9.27
-13.99
-18.83
-23.39
-27.25
-30.20
-32.39
-34.26
-36.44
-39.54
-43.91
-49.56
-56.02
-62.46
-67.70
-70.47
-69.62
-64.42
-54.84
-41.57
-25.93
-9.53
6.10
19.76
30.70
38.64
43.62
45.97
46.15
44.75
42.33
39.39
36.34
33.46
31.02
29.24
28.33
28.36
29.24
30.74
32.53
34.32
35.88
37.03
37.59
37.38
36.18
33.90
30.55
26.33
21.56
16.59
11.74
7.22
3.15
-0.46
-3.73
-6.87
-10.08
-13.54
-17.31
-21.30
-25.32
-29.12
-32.53
-35.45
-37.98
-40.37
-43.07
-46.61
-51.39
-57.42
-64.05
-70.00
-73.56
-73.10
-67.61
-57.09
-42.53
-25.68
-8.47
7.41
20.86
31.39
38.90
43.55
45.55
45.14
42.68
38.71
33.99
29.39
25.72
23.51
22.84
23.45
24.86
26.68
28.65
30.69
32.71
34.54
35.83
36.17
35.29
33.16
30.04
26.36
22.57
18.93
15.50
12.17
8.75
5.14
1.31
-2.64
-6.56
-10.32
-13.88
-17.26
-20.48
-23.55
-26.40
-28.98
-31.35
-33.82
-36.86
-40.99
-46.42
-52.80
-59.11
-63.86
-65.54
-63.12
-56.39
-45.97
-33.02
-18.93
-4.84
8.36
20.15
30.14
37.98
43.35
46.05
46.07
43.71
39.53
34.23
28.64
23.53
19.59
17.31
16.88
18.24
20.97
24.52
28.20
31.39
33.61
34.63
34.43
33.15
31.03
28.26
25.01
21.32
17.19
12.67
7.90
3.20
-1.05
-4.58
-7.32
-9.53
-11.64
-14.11
-17.28
-21.20
-25.67
-30.30
-34.67
-38.44
-41.49
-43.94
-46.16
-48.70
-52.15
-56.81
-62.48
-68.31
-72.85
-74.44
-71.64
-63.80
-51.30
-35.49
-18.35
-1.92
12.25
23.39
31.40
36.70
39.85
41.34
41.56
40.79
39.34
37.52
35.66
34.04
32.91
32.43
32.77
34.08
36.39
39.53
43.04
46.26
48.50
49.28
48.45
46.30
43.33
40.06
36.88
33.89
31.01
28.05
24.82
21.17
17.03
12.45
7.61
2.83
-1.46
-4.97
-7.64
-9.73
-11.75
-14.23
-17.43
-21.28
-25.42
-29.36
-32.78
-35.59
-38.00
-40.41
-43.28
-46.98
-51.63
-56.97
-62.23
-66.18
-67.41
-64.74
-57.66
-46.56
-32.67
-17.64
-3.11
9.80
20.51
28.85
34.80
38.35
39.52
38.53
35.85
32.23
28.43
25.02
22.21
19.98
18.23
17.00
16.53
17.16
19.07
22.11
25.70
29.00
31.16
31.63
30.30
27.53
23.97
20.28
16.89
13.88
11.00
7.90
4.35
0.40
-3.60
-7.17
-9.97
-11.97
-13.42
-14.70
-16.10
-17.66
-19.22
-20.60
-21.78
-22.97
-24.47
-26.58
-29.39
-32.85
-36.92
-41.63
-46.98
-52.69
-57.96
-61.51
-61.89
-57.95
-49.42
-37.00
-22.18
-6.74
7.72
20.14
30.02
37.26
41.99
44.39
44.69
43.21
40.33
36.54
32.36
28.24
24.60
21.74
19.85
19.02
19.24
20.39
22.28
24.68
27.28
29.71
31.52
32.32
31.86
30.15
27.46
24.25
20.96
17.84
14.88
11.87
8.62
5.09
1.45
-2.03
-5.18
-7.98
-10.61
-13.33
-16.29
-19.50
-22.78
-25.89
-28.61
-30.84
-32.69
-34.48
-36.68
-39.85
-44.39
-50.27
-56.93
-63.16
-67.52
-68.58
-65.49
-58.13
-47.13
-33.68
-19.16
-4.88
8.06
18.86
27.04
32.49
35.45
36.41
35.97
34.62
32.68
30.30
27.57
24.66
21.86
19.55
18.14
17.90
18.92
21.02
23.83
26.79
29.32
30.98
31.48
30.81
29.11
26.58
23.40
19.73
15.72
11.58
7.58
3.93
0.72
-2.17
-4.98
-8.00
-11.40
-15.09
-18.73
-21.94
-24.40
-26.13
-27.43
-28.82
-30.80
-33.67
-37.51
-42.21
-47.57
-53.26
-58.78
-63.25
-65.54
-64.45
-59.18
-49.63
-36.66
-21.81
-6.89
6.55
17.57
25.87
31.64
35.21
36.91
36.97
35.55
32.87
29.25
25.15
21.12
17.73
15.44
14.53
15.02
16.67
19.05
21.65
24.06
25.97
27.28
27.90
27.75
26.72
24.77
22.08
18.99
15.95
13.24
10.87
8.53
5.73
2.12
-2.40
-7.53
-12.78
-17.60
-21.64
-24.79
-27.18
-29.10
-30.98
-33.31
-36.55
-41.02
-46.73
-53.27
-59.82
-65.23
-68.30
-67.96
-63.60
-55.17
-43.25
-28.99
-13.82
0.80
13.72
24.23
32.09
37.40
40.45
41.54
40.97
39.03
36.05
32.47
28.75
25.42
22.93
21.58
21.50
22.54
24.39
26.65
28.97
31.07
32.79
34.02
34.61
34.39
33.22
31.06
28.04
24.40
20.45
16.43
12.45
8.53
4.60
0.58
-3.62
-7.98
-12.40
-16.72
-20.75
-24.38
-27.57
-30.44
-33.15
-35.93
-39.02
-42.72
-47.28
-52.80
-59.03
-65.16
-69.93
-71.85
-69.72
-63.03
-52.15
-38.28
-22.99
-7.89
5.80
17.35
26.47
33.15
37.55
39.88
40.32
39.13
36.63
33.25
29.57
26.19
23.59
22.07
21.61
22.07
23.27
25.05
27.29
29.80
32.27
34.30
35.47
35.59
34.66
32.81
30.23
26.99
23.10
18.59
13.66
8.65
3.97
-0.10
-3.49
-6.39
-9.14
-12.09
-15.44
-19.18
-23.11
-26.87
-30.20
-32.98
-35.34
-37.71
-40.68
-44.79
-50.35
-57.17
-64.44
-70.87
-74.89
-75.08
-70.59
-61.42
-48.42
-33.05
-16.98
-1.68
11.80
22.85
31.24
36.94
40.11
40.95
39.79
37.05
33.31
29.29
25.67
23.04
21.70
21.69
22.81
24.83
27.52
30.69
34.09
37.33
39.96
41.51
41.76
40.69
38.44
35.22
31.14
26.34
21.04
15.58
10.38
5.79
1.93
-1.32
-4.30
-7.34
-10.69
-14.40
-18.35
-22.27
-25.90
-28.97
-31.40
-33.27
-34.86
-36.60
-39.00
-42.53
-47.50
-53.87
-61.10
-68.14
-73.53
-75.81
-73.92
-67.50
-57.04
-43.67
-28.81
-13.95
-0.27
11.35
20.44
26.85
30.69
32.23
31.69
29.26
25.08
19.49
13.13
6.98
2.15
-0.43
-0.38
2.08
6.24
11.26
16.41
21.34
25.99
30.43
34.61
38.29
41.11
42.78
43.25
42.76
41.74
40.55
39.26
37.59
35.04
31.17
25.92
19.66
13.12
7.03
1.89
-2.29
-5.83
-9.26
-13.03
-17.41
-22.53
-28.43
-35.06
-42.12
-48.94
-54.40
-57.14
-55.96
-50.27
-40.33
-27.24
-12.57
2.07
15.38
26.53
35.08
40.87
43.95
44.59
43.27
40.53
36.93
32.87
28.65
24.61
21.21
19.05
18.69
20.34
23.72
28.11
32.54
36.21
38.58
39.44
38.80
36.78
33.60
29.57
25.08
20.46
15.93
11.48
6.98
2.34
-2.41
-7.08
-11.40
-15.23
-18.61
-21.72
-24.78
-27.90
-31.04
-34.02
-36.67
-38.99
-41.25
-43.96
-47.71
-52.83
-59.08
-65.57
-70.80
-73.10
-71.13
-64.30
-52.94
-38.28
-21.96
-5.69
9.15
21.70
31.55
38.67
43.18
45.34
45.50
44.16
41.94
39.43
37.10
35.15
33.56
32.24
31.22
30.74
31.18
32.77
35.43
38.68
41.77
43.98
44.82
44.17
42.16
39.05
35.10
30.55
25.68
20.79
16.19
12.09
8.51
5.30
2.29
-0.70
-3.74
-6.82
-9.93
-13.05
-16.21
-19.40
-22.54
-25.56
-28.38
-31.05
-33.76
-36.92
-40.94
-46.16
-52.52
-59.38
-65.51
-69.30
-69.24
-64.43
-54.89
-41.55
-25.97
-9.88
5.20
18.15
28.37
35.64
40.08
42.03
41.99
40.50
38.01
34.91
31.47
27.93
24.65
22.00
20.42
20.17
21.34
23.71
26.84
30.15
33.05
35.09
35.93
35.45
33.68
30.79
27.09
22.92
18.66
14.64
11.08
8.02
5.41
2.98
0.48
-2.31
-5.49
-8.95
-12.55
-16.10
-19.52
-22.75
-25.74
-28.40
-30.68
-32.63
-34.52
-36.83
-40.11
-44.67
-50.45
-56.86
-62.82
-67.04
-68.31
-65.71
-58.90
-48.21
-34.60
-19.56
-4.73
8.41
18.91
26.44
31.15
33.49
33.93
32.88
30.61
27.49
23.97
20.57
17.76
15.87
15.03
15.22
16.34
18.29
20.91
23.96
27.08
29.81
31.69
32.31
31.40
28.93
25.09
20.32
15.22
10.38
6.18
2.71
-0.26
-3.15
-6.33
-9.96
-13.91
-17.86
-21.45
-24.45
-26.79
-28.66
-30.33
-32.12
-34.33
-37.21
-40.90
-45.37
-50.37
-55.28
-59.15
-60.82
-59.21
-53.63
-44.10
-31.42
-17.00
-2.50
10.67
21.55
29.79
35.48
38.92
40.36
39.99
37.95
34.55
30.25
25.71
21.52
18.19
15.97
14.97
15.25
16.78
19.40
22.75
26.25
29.27
31.25
31.95
31.43
29.92
27.61
24.54
20.67
16.09
11.06
6.07
1.60
-2.11
-5.14
-7.84
-10.58
-13.58
-16.92
-20.50
-24.25
-28.06
-31.84
-35.40
-38.53
-41.10
-43.23
-45.33
-48.00
-51.72
-56.61
-62.19
-67.39
-70.78
-70.96
-66.98
-58.62
-46.46
-31.77
-16.13
-1.05
12.34
23.45
32.10
38.39
42.43
44.36
44.34
42.64
39.71
36.11
32.41
29.09
26.53
24.94
24.43
24.95
26.33
28.29
30.53
32.77
34.81
36.49
37.67
38.18
37.83
36.50
34.14
30.84
26.80
22.26
17.54
12.94
8.66
4.81
1.29
-2.06
-5.45
-8.98
-12.64
-16.32
-19.92
-23.35
-26.58
-29.53
-32.14
-34.41
-36.52
-38.88
-42.04
-46.40
-52.00
-58.31
-64.25
-68.43
-69.57
-66.84
-60.10
-49.96
-37.48
-23.91
-10.41
2.16
13.22
22.41
29.54
34.54
37.46
38.48
37.90
36.05
33.29
29.98
26.53
23.38
21.02
19.84
20.08
21.69
24.33
27.51
30.68
33.37
35.21
35.96
35.43
33.52
30.26
25.91
20.94
15.88
11.11
6.72
2.51
-1.74
-6.11
-10.38
-14.16
-17.12
-19.25
-20.86
-22.43
-24.35
-26.71
-29.35
-32.01
-34.65
-37.50
-41.01
-45.53
-51.02
-56.84
-61.78
-64.36
-63.21
-57.58
-47.66
-34.51
-19.79
-5.24
7.83
18.74
27.44
34.17
39.14
42.34
43.64
42.95
40.48
36.79
32.67
28.90
26.04
24.33
23.69
23.92
24.78
26.12
27.82
29.76
31.68
33.20
33.89
33.35
31.48
28.45
24.74
20.91
17.35
14.13
11.03
7.70
3.94
-0.20
-4.40
-8.33
-11.80
-14.89
-17.87
-21.04
-24.43
-27.87
-30.99
-33.51
-35.40
-36.98
-38.77
-41.40
-45.28
-50.47
-56.54
-62.52
-67.05
-68.61
-65.98
-58.56
-46.74
-31.82
-15.69
-0.26
13.05
23.59
31.42
36.98
40.72
42.85
43.35
42.17
39.52
35.94
32.25
29.24
27.41
26.82
27.19
28.12
29.33
30.74
32.37
34.17
35.77
36.68
36.40
34.79
32.13
29.00
25.95
23.23
20.69
17.98
14.78
11.05
7.02
3.02
-0.63
-3.82
-6.62
-9.20
-11.78
-14.54
-17.59
-20.93
-24.41
-27.77
-30.76
-33.29
-35.50
-37.78
-40.65
-44.49
-49.46
-55.28
-61.18
-66.03
-68.46
-67.29
-61.82
-52.21
-39.40
-24.95
-10.52
2.53
13.43
22.01
28.49
33.15
36.22
37.78
37.88
36.65
34.38
31.57
28.81
26.61
25.32
25.03
25.62
26.86
28.55
30.51
32.55
34.42
35.76
36.21
35.53
33.69
30.89
27.51
23.92
20.38
17.02
13.85
10.82
7.84
4.82
1.64
-1.79
-5.49
-9.42
-13.41
-17.25
-20.70
-23.62
-26.03
-28.10
-30.12
-32.37
-35.12
-38.53
-42.63
-47.22
-51.82
-55.58
-57.39
-56.17
-51.23
-42.59
-31.03
-17.93
-4.79
7.15
17.16
25.00
30.77
34.68
36.86
37.39
36.29
33.71
30.01
25.80
21.84
18.82
17.18
16.96
17.83
19.32
20.98
22.58
24.03
25.31
26.26
26.64
26.18
24.76
22.50
19.69
16.63
13.54
10.43
7.22
3.82
0.25
-3.33
-6.70
-9.71
-12.36
-14.81
-17.32
-20.05
-22.98
-25.95
-28.70
-31.05
-33.03
-34.89
-37.01
-39.72
-43.25
-47.63
-52.62
-57.74
-62.14
-64.72
-64.24
-59.70
-50.82
-38.23
-23.42
-8.28
5.47
16.81
25.51
31.90
36.40
39.25
40.41
39.80
37.60
34.36
30.84
27.83
25.78
24.81
24.67
25.02
25.59
26.26
27.06
28.04
29.12
30.04
30.38
29.73
27.85
24.87
21.25
17.59
14.37
11.69
9.29
6.67
3.50
-0.16
-3.83
-6.87
-8.88
-9.96
-10.65
-11.70
-13.63
-16.44
-19.66
-22.62
-24.86
-26.34
-27.51
-29.02
-31.44
-35.08
-39.80
-45.13
-50.33
-54.43
-56.42
-55.40
-50.79
-42.57
-31.35
-18.28
-4.81
7.68
18.18
26.15
31.59
34.81
36.30
36.52
35.89
34.69
33.17
31.58
30.10
28.91
28.15
27.89
28.16
28.91
30.06
31.44
32.89
34.24
35.36
36.15
36.52
36.31
35.37
33.50
30.62
26.87
22.59
18.31
14.48
11.40
8.98
6.91
4.81
2.41
-0.29
-3.13
-5.96
-8.71
-11.52
-14.56
-17.86
-21.26
-24.48
-27.28
-29.60
-31.65
-33.81
-36.49
-39.96
-44.31
-49.29
-54.37
-58.64
-61.09
-60.66
-56.74
-49.26
-38.87
-26.70
-14.09
-2.22
8.10
16.39
22.53
26.61
28.82
29.48
28.97
27.68
25.96
24.10
22.22
20.43
18.86
17.67
17.07
17.21
18.12
19.61
21.38
23.10
24.46
25.23
25.27
24.48
22.84
20.42
17.37
13.99
10.60
7.44
4.64
2.16
-0.16
-2.48
-4.96
-7.68
-10.65
-13.82
-17.03
-20.06
-22.70
-24.83
-26.50
-27.95
-29.58
-31.79
-34.88
-38.89
-43.48
-47.99
-51.48
-52.96
-51.63
-47.12
-39.59
-29.72
-18.53
-7.07
3.68
13.02
20.53
25.98
29.38
30.88
30.79
29.49
27.41
24.91
22.27
19.69
17.34
15.41
14.18
13.88
14.66
16.46
18.99
21.75
24.21
25.88
26.51
26.06
24.71
22.64
20.06
17.07
13.75
10.21
6.63
3.21
0.08
-2.70
-5.20
-7.52
-9.76
-12.01
-14.30
-16.62
-18.95
-21.22
-23.36
-25.40
-27.49
-29.97
-33.26
-37.61
-42.94
-48.70
-53.98
-57.69
-58.85
-56.85
-51.60
-43.47
-33.23
-21.81
-10.18
0.83
10.58
18.60
24.65
28.60
30.51
30.57
29.17
26.82
24.07
21.44
19.31
17.91
17.30
17.46
18.35
19.92
22.13
24.87
27.92
30.90
33.28
34.52
34.24
32.30
28.92
24.68
20.29
16.43
13.50
11.56
10.28
9.15
7.61
5.30
2.11
-1.82
-6.20
-10.69
-15.00
-18.90
-22.27
-25.07
-27.36
-29.28
-31.09
-33.12
-35.75
-39.27
-43.71
-48.75
-53.65
-57.43
-59.05
-57.80
-53.44
-46.28
-37.02
-26.57
-15.78
-5.39
4.05
12.16
18.71
23.60
26.85
28.59
28.98
28.29
26.83
24.96
23.04
21.39
20.22
19.61
19.54
19.95
20.77
21.93
23.36
24.90
26.36
27.51
28.15
28.19
27.57
26.27
24.31
21.68
18.45
14.79
10.96
7.30
4.09
1.50
-0.53
-2.19
-3.78
-5.56
-7.72
-10.31
-13.25
-16.41
-19.65
-22.88
-26.06
-29.21
-32.42
-35.78
-39.43
-43.43
-47.70
-51.82
-55.08
-56.55
-55.37
-51.07
-43.65
-33.75
-22.34
-10.49
0.80
10.85
19.16
25.45
29.57
31.48
31.30
29.37
26.21
22.50
18.92
16.01
14.05
13.11
13.09
13.86
15.35
17.50
20.18
23.12
25.89
28.06
29.28
29.41
28.51
26.74
24.28
21.27
17.89
14.39
11.00
7.96
5.35
3.08
0.93
-1.42
-4.16
-7.34
-10.81
-14.33
-17.66
-20.71
-23.51
-26.27
-29.20
-32.55
-36.43
-40.84
-45.56
-50.17
-54.02
-56.32
-56.29
-53.37
-47.39
-38.68
-27.97
-16.23
-4.45
6.55
16.17
24.03
29.92
33.80
35.72
35.88
34.62
32.36
29.53
26.58
23.88
21.72
20.33
19.79
20.11
21.21
22.94
25.04
27.23
29.18
30.61
31.31
31.23
30.40
28.91
26.89
24.42
21.58
18.52
15.39
12.34
9.44
6.64
3.73
0.50
-3.17
-7.25
-11.51
-15.67
-19.41
-22.58
-25.13
-27.19
-29.01
-30.90
-33.16
-36.03
-39.67
-44.09
-49.14
-54.39
-59.20
-62.67
-63.82
-61.86
-56.44
-47.76
-36.54
-23.85
-10.82
1.54
12.47
21.48
28.32
32.95
35.54
36.47
36.21
35.27
34.03
32.73
31.46
30.24
29.13
28.23
27.70
27.66
28.10
28.93
29.95
30.98
31.86
32.47
32.61
32.03
30.45
27.74
24.06
19.92
15.95
12.69
10.35
8.70
7.31
5.75
3.75
1.28
-1.58
-4.79
-8.32
-12.13
-16.08
-19.92
-23.40
-26.41
-29.01
-31.44
-33.96
-36.81
-40.17
-44.16
-48.81
-53.91
-58.93
-62.92
-64.75
-63.39
-58.31
-49.65
-38.22
-25.23
-11.97
0.46
11.30
20.10
26.67
31.00
33.26
33.83
33.14
31.72
29.99
28.23
26.55
25.00
23.64
22.63
22.23
22.65
23.94
25.94
28.31
30.61
32.43
33.51
33.67
32.92
31.29
28.91
25.96
22.65
19.18
15.69
12.31
9.15
6.23
3.56
1.00
-1.64
-4.54
-7.78
-11.27
-14.78
-18.06
-20.96
-23.52
-25.92
-28.48
-31.49
-35.18
-39.65
-44.75
-50.10
-54.95
-58.39
-59.47
-57.49
-52.19
-43.86
-33.19
-21.11
-8.60
3.44
14.25
23.25
30.04
34.46
36.59
36.76
35.49
33.30
30.69
28.04
25.57
23.49
21.95
21.10
21.07
21.87
23.41
25.42
27.54
29.40
30.70
31.24
30.95
29.83
27.99
25.58
22.84
19.98
17.19
14.52
11.89
9.15
6.20
3.01
-0.31
-3.66
-6.94
-10.19
-13.46
-16.81
-20.22
-23.59
-26.75
-29.59
-32.12
-34.52
-37.13
-40.35
-44.45
-49.40
-54.77
-59.77
-63.38
-64.65
-62.89
-57.81
-49.58
-38.71
-26.06
-12.67
0.31
11.86
21.24
28.13
32.65
35.13
35.96
35.45
33.85
31.47
28.73
26.15
24.21
23.19
23.08
23.66
24.58
25.52
26.31
26.85
27.14
27.23
27.15
26.91
26.47
25.72
24.55
22.84
20.55
17.77
14.64
11.35
8.09
4.92
1.81
-1.35
-4.69
-8.34
-12.29
-16.42
-20.46
-24.09
-27.10
-29.48
-31.57
-33.86
-36.96
-41.22
-46.67
-52.97
-59.42
-65.20
-69.43
-71.31
-70.23
-65.83
-58.19
-47.85
-35.73
-22.95
-10.53
0.77
10.52
18.52
24.73
29.15
31.88
33.17
33.35
32.76
31.60
29.93
27.76
25.23
22.79
21.14
20.97
22.65
26.05
30.55
35.31
39.55
42.78
44.76
45.45
44.89
43.12
40.30
36.73
32.75
28.66
24.45
19.89
14.71
8.90
2.88
-2.69
-7.17
-10.37
-12.63
-14.62
-16.97
-19.96
-23.36
-26.72
-29.66
-32.16
-34.59
-37.56
-41.61
-47.04
-53.70
-61.02
-68.00
-73.34
-75.64
-73.86
-67.59
-57.28
-44.14
-29.72
-15.46
-2.34
9.16
18.88
26.73
32.61
36.47
38.40
38.73
38.00
36.76
35.50
34.55
34.10
34.27
35.00
36.05
37.00
37.37
36.86
35.53
33.85
32.47
31.89
32.25
33.17
34.05
34.27
33.53
31.89
29.69
27.25
24.68
21.83
18.37
14.12
9.19
4.04
-0.78
-4.82
-7.99
-10.55
-12.96
-15.66
-18.90
-22.68
-26.89
-31.42
-36.28
-41.54
-47.24
-53.24
-59.12
-64.09
-67.15
-67.19
-63.35
-55.30
-43.44
-28.91
-13.27
1.86
15.27
26.32
34.88
41.15
45.35
47.62
48.01
46.68
43.95
40.37
36.51
32.92
29.91
27.68
26.27
25.72
26.07
27.26
29.15
31.39
33.52
35.10
35.83
35.61
34.53
32.78
30.49
27.77
24.59
20.91
16.78
12.33
7.83
3.58
-0.16
-3.39
-6.29
-9.23
-12.53
-16.35
-20.54
-24.72
-28.50
-31.68
-34.36
-36.89
-39.72
-43.20
-47.46
-52.40
-57.60
-62.36
-65.78
-66.80
-64.55
-58.51
-48.80
-36.18
-21.88
-7.30
6.29
17.98
27.24
33.90
38.03
39.90
39.86
38.30
35.64
32.27
28.60
25.01
21.86
19.50
18.18
18.01
18.92
20.69
22.95
25.29
27.34
28.78
29.40
29.10
27.85
25.71
22.80
19.32
15.51
11.64
7.88
4.29
0.80
-2.76
-6.52
-10.51
-14.65
-18.79
-22.73
-26.36
-29.67
-32.83
-36.09
-39.74
-44.00
-48.88
-54.04
-58.77
-62.08
-62.85
-60.23
-53.83
-43.91
-31.28
-17.18
-2.96
10.21
21.48
30.38
36.73
40.57
42.03
41.35
38.90
35.19
30.78
26.28
22.22
19.05
17.05
16.34
16.85
18.32
20.29
22.20
23.59
24.15
23.84
22.77
21.16
19.17
16.93
14.50
11.93
9.28
6.58
3.82
0.93
-2.14
-5.47
-9.00
-12.67
-16.36
-19.98
-23.50
-26.93
-30.39
-34.01
-38.03
-42.68
-48.10
-54.15
-60.27
-65.53
-68.73
-68.73
-64.78
-56.74
-45.18
-31.18
-16.10
-1.28
12.17
23.51
32.30
38.45
42.06
43.39
42.79
40.65
37.44
33.67
29.91
26.65
24.25
22.86
22.40
22.70
23.54
24.87
26.71
29.01
31.56
33.84
35.15
34.84
32.63
28.75
23.96
19.20
15.21
12.22
9.85
7.27
3.64
-1.51
-8.06
-15.35
-22.40
-28.27
-32.34
-34.48
-35.10
-35.20
-36.22
-39.79
-47.19
-58.66
-72.92
-87.11
-97.56
-101.13
-96.42
-84.42
-68.06
-50.92
-35.82
-23.79
-14.10
-5.16
4.42
14.98
25.84
35.79
43.84
49.63
53.32
55.28
55.75
54.83
52.73
49.99
47.57
46.48
47.37
50.08
53.69
56.85
58.32
57.44
54.23
49.29
43.45
37.45
31.80
26.67
21.93
17.24
12.16
6.28
-0.60
-8.35
-16.50
-24.30
-30.98
-36.00
-39.27
-41.14
-42.29
-43.49
-45.34
-48.16
-52.01
-56.82
-62.47
-68.82
-75.51
-81.81
-86.50
-88.03
-84.94
-76.41
-62.77
-45.55
-27.10
-9.85
4.46
15.21
22.92
28.61
33.23
37.17
40.18
41.77
41.57
39.73
36.89
33.93
31.64
30.47
30.45
31.38
32.96
34.92
37.07
39.16
40.92
41.96
41.99
40.87
38.78
36.20
33.71
31.76
30.40
29.27
27.71
25.07
20.99
15.59
9.37
2.92
-3.29
-9.09
-14.44
-19.29
-23.45
-26.71
-29.05
-30.79
-32.61
-35.24
-39.23
-44.63
-51.04
-57.74
-63.89
-68.63
-71.09
-70.46
-66.15
-58.05
-46.72
-33.25
-18.97
-5.01
7.95
19.67
29.99
38.68
45.19
49.02
49.91
48.11
44.37
39.63
34.82
30.57
27.26
25.06
24.00
24.04
25.00
26.68
28.82
31.22
33.65
35.83
37.40
38.02
37.45
35.70
33.04
29.85
26.47
23.07
19.59
15.92
11.97
7.80
3.51
-0.83
-5.17
-9.56
-14.00
-18.45
-22.81
-26.93
-30.63
-33.73
-36.21
-38.23
-40.27
-43.00
-47.06
-52.68
-59.34
-65.73
-69.96
-70.18
-65.11
-54.55
-39.42
-21.51
-3.01
14.02
27.92
37.71
43.13
44.64
43.31
40.57
37.81
35.96
35.22
35.10
34.81
33.72
31.79
29.60
28.03
27.80
29.04
31.25
33.59
35.24
35.78
35.24
33.90
32.07
29.84
27.10
23.71
19.70
15.35
11.11
7.39
4.38
1.97
-0.17
-2.40
-4.97
-7.93
-11.21
-14.63
-18.00
-21.15
-23.99
-26.52
-28.89
-31.43
-34.57
-38.69
-44.02
-50.42
-57.25
-63.41
-67.42
-67.77
-63.39
-54.10
-40.77
-25.20
-9.49
4.58
16.03
24.74
31.11
35.55
38.19
38.91
37.63
34.62
30.59
26.44
22.96
20.51
19.04
18.25
17.89
17.98
18.70
20.27
22.68
25.56
28.28
30.10
30.51
29.26
26.46
22.48
17.77
12.80
7.92
3.35
-0.84
-4.73
-8.53
-12.46
-16.70
-21.23
-25.85
-30.22
-34.01
-37.07
-39.48
-41.58
-43.89
-46.95
-51.08
-56.20
-61.65
-66.22
-68.33
-66.55
-60.00
-48.81
-34.11
-17.75
-1.72
12.46
23.96
32.68
38.92
43.03
45.23
45.53
43.99
40.76
36.18
30.78
25.15
19.93
15.71
13.02
12.19
13.28
15.93
19.49
23.08
25.91
27.40
27.34
25.83
23.19
19.83
16.09
12.26
8.49
4.78
1.04
-2.89
-7.09
-11.53
-16.04
-20.42
-24.56
-28.48
-32.39
-36.58
-41.27
-46.55
-52.29
-58.14
-63.47
-67.40
-68.86
-66.77
-60.39
-49.68
-35.38
-18.96
-2.24
13.08
25.79
35.40
41.99
45.98
47.84
47.90
46.35
43.34
39.22
34.50
29.81
25.70
22.57
20.60
19.83
20.19
21.45
23.34
25.41
27.24
28.44
28.76
28.02
26.12
23.08
19.07
14.51
9.93
5.76
2.02
-1.68
-5.92
-11.06
-16.91
-22.80
-27.93
-31.90
-34.88
-37.60
-40.87
-45.23
-50.82
-57.36
-64.38
-71.21
-76.93
-80.35
-80.13
-75.24
-65.37
-51.22
-34.40
-16.94
-0.75
12.83
23.27
30.66
35.50
38.35
39.64
39.62
38.48
36.47
33.93
31.38
29.32
28.13
27.90
28.47
29.53
30.75
31.99
33.21
34.38
35.39
35.90
35.50
33.84
30.83
26.72
22.01
17.23
12.73
8.53
4.32
-0.28
-5.51
-11.30
-17.29
-22.98
-27.93
-31.93
-35.05
-37.66
-40.26
-43.43
-47.62
-52.93
-58.98
-64.75
-68.85
-69.78
-66.40
-58.28
-45.85
-30.27
-13.18
3.70
18.91
31.46
40.94
47.35
51.00
52.30
51.64
49.38
45.89
41.62
37.11
32.93
29.53
27.12
25.75
25.28
25.60
26.63
28.32
30.48
32.81
34.84
36.07
36.12
34.78
32.09
28.22
23.48
18.16
12.59
7.14
2.10
-2.37
-6.38
-10.23
-14.28
-18.82
-23.80
-29.01
-34.06
-38.70
-42.88
-46.75
-50.62
-54.83
-59.64
-65.13
-71.13
-77.03
-81.76
-83.87
-81.88
-74.79
-62.45
-45.84
-26.85
-7.85
8.93
22.03
30.94
36.16
38.72
39.76
40.05
39.82
38.94
37.17
34.51
31.34
28.30
26.01
24.83
24.70
25.30
26.33
27.69
29.50
31.87
34.59
36.96
38.03
36.90
33.35
27.98
22.06
16.89
13.21
10.77
8.59
5.50
0.79
-5.45
-12.45
-19.24
-25.11
-29.90
-33.92
-37.70
-41.73
-46.32
-51.56
-57.39
-63.47
-69.15
-73.44
-75.13
-73.12
-66.73
-55.89
-41.24
-23.94
-5.51
12.48
28.59
41.69
51.07
56.50
58.17
56.64
52.62
46.93
40.32
33.57
27.42
22.52
19.37
18.16
18.81
20.99
24.25
28.09
32.00
35.49
38.05
39.25
38.81
36.76
33.45
29.52
25.61
22.17
19.27
16.56
13.48
9.50
4.42
-1.56
-7.96
-14.19
-19.84
-24.71
-28.77
-32.11
-34.88
-37.28
-39.65
-42.48
-46.30
-51.46
-57.86
-64.76
-70.83
-74.48
-74.23
-69.20
-59.34
-45.41
-28.83
-11.27
5.66
20.71
33.12
42.57
49.05
52.72
53.76
52.41
49.01
44.14
38.60
33.27
28.91
25.93
24.31
23.78
23.95
24.58
25.57
26.93
28.66
30.64
32.66
34.38
35.40
35.29
33.69
30.46
25.79
20.24
14.57
9.48
5.26
1.69
-1.85
-6.07
-11.33
-17.46
-23.75
-29.34
-33.54
-36.22
-37.81
-39.09
-40.86
-43.69
-47.82
-53.19
-59.46
-65.97
-71.57
-74.71
-73.74
-67.45
-55.63
-39.24
-20.31
-1.22
15.93
29.84
40.08
46.89
50.79
52.35
52.03
50.18
47.07
42.88
37.76
31.94
25.81
20.07
15.54
12.96
12.69
14.57
17.93
21.90
25.69
28.78
30.88
31.80
31.45
29.76
26.87
23.12
19.01
15.07
11.59
8.58
5.79
2.92
-0.25
-3.77
-7.49
-11.21
-14.67
-17.64
-19.95
-21.56
-22.64
-23.60
-25.02
-27.50
-31.52
-37.17
-44.00
-51.02
-56.82
-59.88
-58.86
-53.01
-42.36
-27.77
-10.78
6.70
22.73
35.69
44.57
48.99
49.28
46.23
40.87
34.20
27.08
20.11
13.79
8.54
4.73
2.63
2.35
3.79
6.67
10.65
15.40
20.63
26.00
30.99
34.92
37.07
36.96
34.55
30.29
24.99
19.47
14.27
9.54
5.11
0.73
-3.74
-8.30
-12.85
-17.36
-21.85
-26.43
-31.18
-36.11
-41.23
-46.63
-52.58
-59.34
-66.90
-74.67
-81.35
-85.20
-84.68
-78.96
-68.29
-53.80
-37.10
-19.71
-2.78
12.85
26.42
37.19
44.47
47.94
47.94
45.38
41.45
37.05
32.59
27.93
22.74
16.99
11.11
6.06
2.88
2.30
4.39
8.52
13.60
18.52
22.47
25.19
26.89
27.92
28.54
28.69
28.02
26.13
22.77
18.03
12.28
5.96
-0.59
-7.19
-13.75
-20.16
-26.16
-31.49
-36.11
-40.38
-45.06
-50.99
-58.47
-66.85
-74.41
-78.75
-77.73
-70.27
-56.90
-39.50
-20.67
-2.75
12.82
25.63
35.93
44.01
49.90
53.25
53.74
51.43
46.94
41.28
35.51
30.47
26.62
24.11
22.96
23.16
24.59
27.01
29.94
32.76
34.87
35.80
35.40
33.74
31.06
27.68
23.82
19.58
14.89
9.62
3.59
-3.21
-10.56
-18.02
-25.06
-31.23
-36.38
-40.75
-44.90
-49.53
-55.18
-61.98
-69.48
-76.56
-81.66
-83.11
-79.62
-70.69
-56.85
-39.54
-20.69
-2.30
14.09
27.56
37.77
44.84
49.09
50.92
50.68
48.73
45.37
40.85
35.46
29.64
23.94
19.11
15.80
14.42
15.02
17.22
20.37
23.70
26.49
28.21
28.54
27.43
25.02
21.57
17.44
12.94
8.26
3.45
-1.54
-6.80
-12.36
-18.15
-23.95
-29.53
-34.73
-39.60
-44.45
-49.75
-55.90
-62.90
-70.14
-76.37
-79.91
-79.15
-73.05
-61.52
-45.46
-26.60
-6.95
11.55
27.49
40.05
48.97
54.37
56.59
56.03
53.16
48.54
42.85
36.85
31.28
26.70
23.45
21.54
20.88
21.30
22.66
24.83
27.54
30.35
32.60
33.64
33.02
30.64
26.76
21.95
16.78
11.71
6.93
2.35
-2.26
-7.19
-12.57
-18.38
-24.37
-30.22
-35.67
-40.63
-45.29
-49.96
-55.07
-60.92
-67.51
-74.45
-80.81
-85.19
-85.98
-81.85
-72.21
-57.51
-39.26
-19.54
-0.45
16.45
30.34
41.08
48.86
53.94
56.49
56.68
54.77
51.20
46.55
41.36
36.11
31.13
26.71
23.21
20.99
20.44
21.69
24.57
28.50
32.63
36.07
38.10
38.35
36.77
33.63
29.39
24.58
19.69
15.04
10.74
6.62
2.38
-2.37
-7.88
-14.13
-20.81
-27.41
-33.37
-38.28
-42.07
-45.04
-47.79
-51.15
-55.80
-62.05
-69.54
-77.13
-83.07
-85.44
-82.66
-74.01
-59.83
-41.47
-20.95
-0.44
18.17
33.59
45.23
53.12
57.69
59.53
59.26
57.29
53.94
49.46
44.20
38.63
33.37
29.07
26.26
25.23
25.96
28.14
31.24
34.64
37.72
39.98
41.11
40.99
39.66
37.24
33.88
29.72
24.91
19.69
14.31
9.06
4.12
-0.44
-4.71
-8.87
-13.08
-17.40
-21.81
-26.20
-30.46
-34.57
-38.51
-42.30
-45.96
-49.54
-53.21
-57.29
-62.22
-68.35
-75.60
-83.16
-89.46
-92.46
-90.22
-81.61
-66.72
-46.96
-24.61
-2.25
17.82
33.92
45.08
51.08
52.29
49.72
44.77
39.09
34.10
30.75
29.30
29.42
30.52
32.05
33.77
35.70
37.99
40.71
43.66
46.46
48.60
49.65
49.30
47.43
44.12
39.60
34.19
28.25
22.15
16.16
10.50
5.26
0.42
-4.13
-8.57
-13.10
-17.79
-22.61
-27.36
-31.79
-35.70
-39.04
-41.90
-44.63
-47.69
-51.56
-56.63
-62.92
-69.94
-76.51
-80.99
-81.57
-76.87
-66.44
-50.99
-32.17
-12.12
7.08
23.92
37.58
47.83
54.79
58.71
59.84
58.48
55.03
49.98
44.02
37.84
32.15
27.53
24.39
22.86
22.88
24.19
26.47
29.37
32.52
35.46
37.66
38.57
37.80
35.27
31.38
26.78
22.16
17.89
13.98
10.15
6.13
1.82
-2.65
-7.14
-11.59
-16.16
-20.98
-26.05
-31.11
-35.77
-39.71
-42.91
-45.67
-48.53
-52.05
-56.72
-62.80
-70.19
-78.32
-86.00
-91.48
-92.81
-88.41
-77.63
-61.07
-40.51
-18.34
3.05
21.81
36.90
48.02
55.36
59.39
60.68
59.83
57.41
53.96
49.89
45.52
41.10
36.91
33.32
30.74
29.51
29.76
31.31
33.66
36.23
38.41
39.79
40.10
39.21
37.08
33.75
29.39
24.32
18.96
13.72
8.87
4.42
0.15
-4.25
-9.05
-14.33
-20.00
-25.80
-31.45
-36.71
-41.42
-45.53
-49.06
-52.09
-54.84
-57.71
-61.21
-65.85
-71.80
-78.55
-84.84
-88.78
-88.40
-82.26
-70.09
-52.85
-32.55
-11.52
8.17
25.15
38.89
49.38
56.83
61.40
63.15
62.13
58.59
53.10
46.43
39.50
33.15
28.03
24.49
22.67
22.54
23.92
26.55
30.00
33.70
37.02
39.34
40.21
39.40
36.95
33.11
28.29
22.87
17.25
11.65
6.22
0.96
-4.20
-9.40
-14.80
-20.47
-26.42
-32.50
-38.44
-43.87
-48.49
-52.17
-55.08
-57.73
-60.83
-65.06
-70.73
-77.48
-84.18
-89.10
-90.29
-86.18
-76.07
-60.44
-40.82
-19.37
1.69
20.57
36.22
48.23
56.70
61.90
64.14
63.73
61.03
56.52
50.83
44.65
38.70
33.62
29.85
27.63
26.97
27.64
29.28
31.50
33.99
36.50
38.84
40.78
41.99
42.11
40.85
38.13
34.11
29.13
23.56
17.72
11.81
5.97
0.28
-5.23
-10.63
-16.10
-21.78
-27.74
-33.84
-39.76
-45.16
-49.89
-54.09
-58.19
-62.71
-68.09
-74.32
-80.85
-86.52
-89.75
-88.96
-83.03
-71.71
-55.70
-36.50
-15.91
4.40
23.09
39.17
51.91
60.75
65.40
66.06
63.39
58.48
52.45
46.18
40.18
34.68
29.89
26.10
23.74
23.14
24.40
27.26
31.18
35.44
39.35
42.36
44.07
44.24
42.86
40.10
36.37
32.17
27.97
24.07
20.52
17.07
13.37
9.06
3.95
-1.96
-8.46
-15.13
-21.53
-27.22
-31.95
-35.77
-39.07
-42.50
-46.71
-52.06
-58.39
-64.91
-70.40
-73.45
-72.85
-67.85
-58.38
-45.05
-29.08
-12.03
4.51
19.21
31.26
40.38
46.72
50.56
52.18
51.76
49.44
45.46
40.19
34.14
27.90
22.14
17.53
14.60
13.70
14.81
17.54
21.15
24.80
27.71
29.37
29.54
28.18
25.41
21.49
16.78
11.77
6.88
2.39
-1.73
-5.76
-10.06
-14.90
-20.30
-25.97
-31.45
-36.29
-40.25
-43.42
-46.17
-49.08
-52.72
-57.41
-63.03
-68.92
-73.87
-76.35
-74.95
-68.71
-57.50
-42.05
-23.89
-4.96
12.82
27.93
39.52
47.44
52.00
53.80
53.41
51.23
47.56
42.67
36.91
30.74
24.71
19.33
15.02
12.11
10.75
11.01
12.75
15.63
19.05
22.27
24.57
25.39
24.55
22.19
18.71
14.58
10.12
5.40
0.29
-5.40
-11.67
-18.21
-24.54
-30.15
-34.85
-38.87
-42.84
-47.52
-53.43
-60.55
-68.19
-75.03
-79.44
-79.83
-75.17
-65.19
-50.60
-32.91
-14.05
4.04
19.87
32.57
41.89
47.99
51.27
52.07
50.75
47.64
43.11
37.59
31.59
25.67
20.34
16.09
13.25
11.95
12.11
13.33
15.07
16.73
17.86
18.24
17.88
16.91
15.36
13.07
9.83
5.52
0.31
-5.28
-10.63
-15.30
-19.26
-23.02
-27.34
-32.95
-40.24
-49.05
-58.61
-67.63
-74.44
-77.36
-75.09
-67.09
-53.86
-36.85
-18.09
0.36
16.89
30.60
41.19
48.75
53.48
55.51
54.96
51.98
46.89
40.28
32.92
25.72
19.44
14.66
11.68
10.51
10.95
12.64
15.19
18.12
20.93
23.08
24.10
23.60
21.41
17.57
12.36
6.28
-0.13
-6.40
-12.26
-17.73
-23.11
-28.81
-35.26
-42.78
-51.41
-60.83
-70.22
-78.27
-83.36
-83.90
-78.87
-68.15
-52.65
-34.08
-14.48
4.28
20.79
34.22
44.22
50.72
53.93
54.20
52.05
48.06
42.87
37.07
31.20
25.75
21.17
17.88
16.22
16.36
18.22
21.40
25.22
28.84
31.42
32.36
31.39
28.56
24.18
18.60
12.21
5.34
-1.70
-8.62
-15.16
-21.17
-26.66
-31.79
-36.83
-42.16
-48.12
-54.95
-62.66
-70.84
-78.61
-84.56
-87.04
-84.55
-76.25
-62.39
-44.24
-23.86
-3.51
14.98
30.57
43.00
52.52
59.45
63.91
65.76
64.83
61.23
55.50
48.59
41.61
35.55
31.05
28.37
27.51
28.28
30.41
33.55
37.25
40.97
44.11
46.13
46.58
45.14
41.74
36.58
30.12
23.07
16.14
9.85
4.33
-0.70
-5.75
-11.32
-17.58
-24.29
-30.84
-36.48
-40.70
-43.41
-45.02
-46.32
-48.20
-51.40
-56.38
-63.07
-70.83
-78.39
-83.92
-85.40
-81.16
-70.50
-54.05
-33.69
-11.96
8.69
26.51
40.72
51.24
58.38
62.46
63.80
62.74
59.80
55.64
51.00
46.54
42.81
40.16
38.82
38.86
40.19
42.55
45.56
48.77
51.76
54.17
55.68
55.98
54.84
52.17
48.14
43.17
37.76
32.41
27.41
22.77
18.32
13.85
9.26
4.66
0.23
-3.80
-7.31
-10.28
-12.80
-14.99
-17.04
-19.14
-21.57
-24.57
-28.27
-32.62
-37.30
-41.88
-46.00
-49.56
-52.81
-56.27
-60.61
-66.34
-73.60
-81.96
-90.30
-96.85
-99.62
-96.84
-87.63
-72.33
-52.50
-30.51
-8.81
10.64
26.73
39.12
47.95
53.48
55.98
55.69
52.98
48.44
42.92
37.32
32.52
29.08
27.28
27.02
28.04
29.96
32.39
34.96
37.31
39.14
40.19
40.35
39.64
38.20
36.19
33.76
31.03
28.16
25.28
22.51
19.81
16.98
13.73
9.86
5.46
0.91
-3.31
-6.83
-9.54
-11.64
-13.53
-15.58
-18.02
-20.93
-24.28
-27.93
-31.72
-35.44
-38.96
-42.33
-45.86
-50.03
-55.38
-62.20
-70.19
-78.37
-85.09
-88.39
-86.57
-78.68
-64.90
-46.53
-25.66
-4.58
14.72
30.92
43.42
52.11
57.26
59.29
58.70
56.15
52.31
47.85
43.38
39.38
36.23
34.16
33.39
34.00
35.93
38.94
42.56
46.20
49.23
51.15
51.68
50.71
48.33
44.79
40.39
35.53
30.63
26.05
22.01
18.54
15.39
12.21
8.65
4.58
0.13
-4.28
-8.18
-11.23
-13.36
-14.89
-16.41
-18.53
-21.64
-25.69
-30.28
-34.78
-38.71
-41.85
-44.38
-46.76
-49.58
-53.39
-58.53
-64.98
-72.26
-79.28
-84.44
-85.94
-82.26
-72.72
-57.76
-38.93
-18.45
1.35
18.62
32.25
41.96
48.10
51.33
52.28
51.47
49.21
45.77
41.54
37.07
33.06
30.12
28.53
28.15
28.62
29.49
30.54
31.73
33.13
34.67
36.06
36.80
36.40
34.61
31.52
27.50
23.05
18.61
14.43
10.52
6.79
3.07
-0.74
-4.61
-8.34
-11.72
-14.54
-16.81
-18.76
-20.83
-23.53
-27.25
-32.13
-37.93
-44.11
-49.96
-54.83
-58.39
-60.71
-62.36
-64.21
-67.11
-71.59
-77.44
-83.59
-88.31
-89.55
-85.66
-75.86
-60.59
-41.41
-20.56
-0.34
17.37
31.42
41.41
47.47
50.09
49.94
47.78
44.37
40.46
36.65
33.38
30.90
29.24
28.41
28.41
29.27
31.06
33.72
37.03
40.51
43.54
45.49
45.87
44.51
41.59
37.56
32.95
28.29
23.91
19.97
16.42
13.13
9.91
6.66
3.38
0.13
-3.03
-6.14
-9.30
-12.70
-16.45
-20.52
-24.76
-28.92
-32.82
-36.34
-39.53
-42.53
-45.57
-48.97
-53.06
-58.10
-63.95
-69.94
-74.79
-76.84
-74.50
-66.82
-53.90
-36.90
-17.79
1.25
18.34
32.29
42.68
49.61
53.52
54.86
54.04
51.38
47.26
42.17
36.75
31.70
27.69
25.17
24.34
25.10
27.10
29.91
33.05
36.08
38.60
40.32
40.99
40.44
38.65
35.72
31.90
27.54
22.95
18.39
13.98
9.68
5.47
1.30
-2.79
-6.68
-10.36
-13.88
-17.39
-21.10
-25.05
-29.18
-33.24
-36.97
-40.21
-42.97
-45.39
-47.70
-50.18
-53.13
-56.87
-61.65
-67.39
-73.40
-78.36
-80.51
-78.26
-70.75
-58.23
-42.01
-24.04
-6.27
9.79
23.27
33.81
41.35
45.95
47.76
47.08
44.33
40.11
35.04
29.81
25.05
21.35
19.17
18.72
19.91
22.41
25.67
29.17
32.46
35.24
37.31
38.45
38.44
37.08
34.31
30.28
25.36
20.01
14.70
9.76
5.35
1.45
-2.14
-5.73
-9.64
-14.06
-18.98
-24.11
-29.05
-33.40
-37.00
-39.96
-42.66
-45.55
-49.05
-53.44
-58.79
-64.84
-70.90
-75.87
-78.28
-76.73
-70.32
-59.00
-43.77
-26.27
-8.40
8.24
22.58
34.06
42.52
47.96
50.55
50.57
48.50
44.92
40.47
35.70
31.08
27.03
23.97
22.33
22.39
24.21
27.51
31.71
36.05
39.76
42.27
43.25
42.65
40.64
37.50
33.53
28.96
23.96
18.64
13.12
7.59
2.30
-2.49
-6.67
-10.30
-13.69
-17.17
-20.99
-25.13
-29.31
-33.16
-36.37
-38.93
-41.09
-43.32
-46.11
-49.81
-54.64
-60.59
-67.40
-74.36
-80.31
-83.69
-82.92
-76.87
-65.34
-49.17
-30.15
-10.50
7.73
23.05
34.77
42.85
47.65
49.73
49.62
47.85
44.89
41.23
37.39
33.85
31.01
29.15
28.37
28.65
29.89
31.98
34.75
37.93
41.13
43.85
45.58
45.96
44.86
42.47
39.19
35.47
31.67
27.92
24.17
20.22
15.90
11.12
5.98
0.74
-4.27
-8.77
-12.69
-16.16
-19.49
-22.98
-26.81
-30.95
-35.26
-39.53
-43.67
-47.66
-51.63
-55.79
-60.40
-65.67
-71.63
-77.86
-83.48
-87.15
-87.40
-83.03
-73.53
-59.36
-41.84
-22.85
-4.31
12.20
25.68
35.77
42.54
46.32
47.53
46.55
43.82
39.90
35.45
31.24
27.97
26.06
25.63
26.50
28.36
30.86
33.74
36.81
39.84
42.55
44.54
45.46
45.06
43.36
40.62
37.24
33.59
29.93
26.27
22.48
18.39
13.88
9.02
4.03
-0.81
-5.27
-9.33
-13.19
-17.20
-21.63
-26.53
-31.61
-36.35
-40.28
-43.13
-45.05
-46.54
-48.30
-51.02
-55.19
-60.87
-67.58
-74.22
-79.15
-80.56
-76.92
-67.60
-53.06
-34.88
-15.19
3.90
20.84
34.81
45.57
53.22
57.90
59.83
59.33
56.88
53.15
48.88
44.68
41.01
38.14
36.22
35.32
35.51
36.72
38.78
41.31
43.85
45.89
47.03
47.04
45.88
43.70
40.71
37.21
33.45
29.64
25.87
22.13
18.30
14.25
9.93
5.43
0.92
-3.38
-7.40
-11.22
-15.02
-19.00
-23.18
-27.41
-31.43
-35.01
-38.07
-40.76
-43.41
-46.48
-50.45
-55.66
-62.12
-69.24
-75.82
-80.17
-80.58
-75.82
-65.69
-51.04
-33.56
-15.27
2.00
16.98
28.95
37.69
43.26
45.90
46.01
44.11
40.83
36.81
32.65
28.79
25.56
23.17
21.82
21.66
22.73
24.75
27.15
29.13
29.96
29.33
27.48
25.13
23.06
21.77
21.17
20.71
19.72
17.76
14.88
11.45
7.86
4.26
0.47
-3.77
-8.57
-13.68
-18.60
-22.78
-25.99
-28.40
-30.56
-33.14
-36.60
-41.16
-46.69
-52.92
-59.51
-65.95
-71.46
-74.95
-75.19
-71.08
-62.13
-48.81
-32.43
-14.90
1.91
16.66
28.74
38.14
45.08
49.72
52.03
51.86
49.24
44.61
38.71
32.50
26.85
22.36
19.32
17.79
17.76
19.14
21.81
25.48
29.66
33.69
36.75
38.15
37.45
34.59
29.96
24.21
18.11
12.34
7.29
3.01
-0.76
-4.44
-8.43
-12.98
-18.05
-23.42
-28.69
-33.49
-37.63
-41.18
-44.50
-48.15
-52.66
-58.29
-64.78
-71.23
-76.19
-77.94
-75.06
-66.78
-53.33
-35.92
-16.43
3.00
20.50
34.75
45.12
51.66
54.80
55.28
53.81
51.05
47.57
43.74
39.87
36.04
32.20
28.19
24.00
19.93
16.68
15.14
16.01
19.35
24.43
29.89
34.25
36.40
35.92
33.12
28.74
23.58
18.24
13.03
8.01
3.12
-1.78
-6.76
-11.86
-17.02
-22.06
-26.83
-31.18
-35.14
-38.91
-42.86
-47.45
-53.07
-59.80
-67.20
-74.17
-79.13
-80.33
-76.44
-67.03
-52.74
-35.16
-16.34
1.79
17.73
30.64
40.18
46.38
49.50
50.02
48.53
45.69
42.13
38.27
34.41
30.75
27.54
25.08
23.70
23.63
24.89
27.24
30.17
33.08
35.33
36.43
36.09
34.27
31.20
27.20
22.65
17.83
12.88
7.75
2.35
-3.38
-9.40
-15.48
-21.31
-26.59
-31.17
-35.11
-38.77
-42.64
-47.27
-52.97
-59.59
-66.31
-71.73
-74.14
-72.03
-64.62
-52.22
-36.17
-18.48
-1.20
14.08
26.54
36.00
42.70
46.93
48.88
48.63
46.36
42.45
37.55
32.42
27.80
24.20
21.86
20.81
20.96
22.12
24.07
26.57
29.25
31.71
33.50
34.21
33.55
31.40
27.89
23.37
18.37
13.44
8.92
4.81
0.84
-3.45
-8.39
-14.00
-19.97
-25.75
-30.75
-34.61
-37.30
-39.19
-40.91
-43.24
-46.84
-52.00
-58.39
-65.04
-70.40
-72.78
-70.82
-63.85
-52.15
-36.84
-19.57
-2.14
13.83
27.16
37.26
44.06
47.87
49.22
48.66
46.64
43.49
39.53
35.12
30.76
27.03
24.39
23.17
23.41
24.93
27.36
30.27
33.14
35.54
37.08
37.54
36.79
34.87
31.85
27.90
23.27
18.30
13.37
8.83
4.80
1.13
-2.55
-6.66
-11.38
-16.56
-21.81
-26.64
-30.76
-34.11
-36.87
-39.33
-41.80
-44.52
-47.75
-51.78
-56.77
-62.62
-68.71
-73.89
-76.64
-75.56
-69.77
-59.25
-44.94
-28.44
-11.54
4.18
17.73
28.64
36.87
42.51
45.64
46.33
44.77
41.36
36.78
31.84
27.30
23.72
21.35
20.25
20.31
21.43
23.47
26.26
29.49
32.69
35.31
36.78
36.66
34.79
31.29
26.60
21.35
16.18
11.56
7.60
4.07
0.52
-3.49
-8.17
-13.37
-18.67
-23.60
-27.81
-31.26
-34.19
-37.01
-40.18
-44.10
-48.98
-54.76
-61.03
-66.89
-71.08
-72.18
-69.03
-61.07
-48.69
-33.13
-16.18
0.27
14.70
26.30
34.91
40.82
44.43
46.06
45.79
43.67
39.87
34.91
29.60
24.81
21.23
19.18
18.58
19.18
20.73
23.00
25.75
28.57
30.92
32.20
31.96
30.13
26.96
22.92
18.49
14.04
9.76
5.71
1.83
-2.01
-6.04
-10.54
-15.68
-21.45
-27.52
-33.37
-38.38
-42.20
-44.88
-46.98
-49.40
-53.11
-58.73
-66.27
-75.00
-83.59
-90.35
-93.65
-92.31
-85.87
-74.75
-60.19
-43.84
-27.47
-12.44
0.41
10.84
18.93
24.82
28.56
30.12
29.55
27.16
23.63
19.86
16.80
15.18
15.40
17.52
21.43
26.89
33.64
41.29
49.25
56.76
62.99
67.26
69.21
68.87
66.58
62.86
58.25
53.21
48.02
42.78
37.36
31.54
25.16
18.25
11.06
3.97
-2.69
-8.73
-14.12
-18.86
-22.95
-26.36
-29.18
-31.75
-34.66
-38.57
-44.00
-51.01
-59.12
-67.28
-74.06
-77.89
-77.45
-71.93
-61.34
-46.54
-29.01
-10.49
7.43
23.60
37.31
48.17
55.93
60.43
61.70
60.10
56.32
51.30
45.93
40.94
36.78
33.68
31.78
31.16
31.83
33.63
36.18
38.93
41.32
42.91
43.43
42.79
40.97
38.04
34.13
29.47
24.37
19.21
14.23
9.57
5.21
1.01
-3.17
-7.34
-11.45
-15.37
-19.04
-22.49
-25.86
-29.28
-32.74
-36.07
-38.99
-41.33
-43.19
-45.04
-47.63
-51.69
-57.55
-64.88
-72.57
-78.96
-82.14
-80.55
-73.38
-60.90
-44.35
-25.65
-6.87
10.26
24.66
35.89
43.90
48.85
50.88
50.21
47.20
42.51
36.98
31.51
26.85
23.47
21.58
21.21
22.22
24.40
27.40
30.75
33.89
36.35
37.80
38.14
37.43
35.80
33.37
30.17
26.29
21.84
17.05
12.21
7.56
3.20
-0.92
-4.95
-9.08
-13.41
-17.94
-22.61
-27.33
-32.03
-36.62
-41.09
-45.44
-49.79
-54.35
-59.36
-64.85
-70.43
-75.17
-77.71
-76.63
-70.93
-60.42
-45.86
-28.73
-10.88
6.04
20.76
32.63
41.50
47.58
51.21
52.74
52.43
50.49
47.13
42.69
37.70
32.88
28.99
26.65
26.09
27.11
29.18
31.62
33.88
35.70
36.97
37.69
37.74
36.90
34.89
31.62
27.25
22.19
16.91
11.79
6.96
2.44
-1.79
-5.70
-9.18
-12.22
-15.02
-17.97
-21.49
-25.78
-30.58
-35.32
-39.31
-42.17
-44.05
-45.58
-47.63
-50.95
-55.86
-62.14
-69.11
-75.70
-80.62
-82.57
-80.40
-73.42
-61.62
-45.76
-27.27
-8.01
10.18
25.81
37.95
46.36
51.34
53.54
53.69
52.41
50.06
46.87
43.03
38.88
34.92
31.77
29.92
29.68
30.99
33.53
36.81
40.26
43.33
45.52
46.43
45.83
43.70
40.28
35.95
31.18
26.39
21.84
17.62
13.64
9.71
5.65
1.37
-3.09
-7.59
-11.97
-16.17
-20.29
-24.42
-28.63
-32.79
-36.63
-39.94
-42.71
-45.23
-48.02
-51.63
-56.44
-62.48
-69.33
-76.17
-81.76
-84.68
-83.60
-77.66
-66.83
-51.93
-34.51
-16.32
1.07
16.53
29.43
39.44
46.42
50.38
51.53
50.31
47.36
43.41
39.12
35.00
31.45
28.71
26.97
26.38
26.98
28.79
31.74
35.58
39.93
44.13
47.42
49.09
48.74
46.43
42.62
38.02
33.22
28.59
24.20
19.92
15.65
11.34
7.10
3.02
-0.82
-4.40
-7.73
-10.85
-13.85
-16.87
-20.08
-23.63
-27.50
-31.52
-35.44
-39.08
-42.47
-45.91
-49.86
-54.80
-60.95
-68.11
-75.55
-82.02
-86.00
-86.03
-81.09
-70.95
-56.33
-38.78
-20.30
-2.80
12.29
24.25
33.04
39.01
42.67
44.45
44.65
43.44
41.03
37.68
33.80
29.93
26.65
24.53
23.98
25.14
27.86
31.66
35.82
39.57
42.24
43.35
42.73
40.50
37.00
32.72
28.14
23.65
19.45
15.56
11.82
8.10
4.27
0.33
-3.65
-7.65
-11.70
-15.81
-19.97
-23.99
-27.60
-30.56
-32.83
-34.63
-36.44
-38.75
-41.95
-46.22
-51.57
-57.79
-64.47
-70.85
-75.77
-77.78
-75.58
-68.41
-56.48
-40.91
-23.48
-6.05
9.87
23.27
33.68
40.96
45.28
46.94
46.45
44.40
41.29
37.54
33.43
29.24
25.41
22.45
20.89
21.06
22.92
26.10
30.03
34.06
37.61
40.11
41.16
40.48
38.12
34.46
30.12
25.77
21.82
18.38
15.21
11.99
8.48
4.61
0.48
-3.76
-7.98
-12.11
-16.12
-20.01
-23.76
-27.41
-30.97
-34.45
-37.83
-41.09
-44.31
-47.68
-51.55
-56.31
-62.23
-69.25
-76.78
-83.72
-88.55
-89.70
-85.92
-76.68
-62.45
-44.55
-24.94
-5.70
11.43
25.37
35.78
42.86
47.08
48.96
48.90
47.20
44.19
40.26
35.96
31.89
28.60
26.54
25.94
26.88
29.23
32.64
36.57
40.33
43.24
44.79
44.83
43.50
41.20
38.37
35.36
32.35
29.32
26.16
22.72
18.88
14.60
9.92
4.97
-0.02
-4.78
-9.14
-12.98
-16.41
-19.63
-22.89
-26.36
-30.08
-33.90
-37.61
-41.04
-44.22
-47.43
-51.15
-55.95
-62.18
-69.71
-77.73
-84.68
-88.65
-87.87
-81.28
-68.93
-52.03
-32.53
-12.61
5.76
21.21
32.95
40.74
44.81
45.80
44.70
42.59
40.38
38.57
37.23
36.18
35.26
34.56
34.38
35.04
36.72
39.28
42.33
45.44
48.21
50.36
51.75
52.19
51.58
49.88
47.13
43.53
39.35
34.82
30.11
25.32
20.47
15.59
10.73
6.01
1.55
-2.56
-6.33
-9.87
-13.34
-16.88
-20.54
-24.22
-27.76
-31.01
-33.91
-36.61
-39.46
-42.97
-47.59
-53.57
-60.64
-67.94
-74.01
-77.15
-75.86
-69.35
-57.82
-42.39
-24.81
-6.96
9.54
23.62
34.76
42.90
48.22
51.02
51.60
50.25
47.31
43.18
38.40
33.60
29.42
26.46
25.06
25.35
27.17
30.16
33.78
37.41
40.38
42.15
42.36
40.98
38.28
34.67
30.62
26.45
22.35
18.37
14.53
10.86
7.38
4.05
0.81
-2.45
-5.81
-9.33
-13.05
-17.02
-21.27
-25.73
-30.21
-34.37
-37.86
-40.48
-42.37
-44.05
-46.27
-49.73
-54.78
-61.13
-67.77
-73.18
-75.63
-73.73
-66.78
-55.09
-39.83
-22.72
-5.63
9.91
22.86
32.75
39.57
43.52
44.95
44.26
41.82
38.10
33.54
28.65
23.93
19.84
16.73
14.85
14.28
15.02
16.93
19.80
23.28
26.89
30.03
32.15
32.80
31.82
29.30
25.59
21.18
16.59
12.27
8.49
5.25
2.38
-0.44
-3.47
-6.81
-10.36
-13.89
-17.16
-20.10
-22.81
-25.49
-28.39
-31.75
-35.87
-40.94
-46.93
-53.35
-59.09
-62.62
-62.45
-57.67
-48.38
-35.67
-21.23
-6.76
6.47
17.81
27.04
34.06
38.77
41.03
40.77
38.24
33.90
28.50
22.84
17.73
13.79
11.41
10.66
11.35
13.04
15.25
17.56
19.71
21.53
22.85
23.47
23.14
21.67
19.08
15.58
11.61
7.61
3.87
0.39
-3.05
-6.86
-11.37
-16.67
-22.49
-28.26
-33.32
-37.17
-39.71
-41.35
-42.85
-45.11
-48.81
-54.17
-60.82
-67.80
-73.77
-77.24
-76.92
-72.05
-62.51
-48.96
-32.69
-15.29
1.57
16.56
28.82
37.98
44.03
47.21
47.78
46.05
42.42
37.44
31.84
26.47
22.16
19.51
18.72
19.62
21.71
24.43
27.30
30.02
32.45
34.43
35.78
36.20
35.43
33.35
30.10
26.01
21.55
17.11
12.91
8.97
5.19
1.47
-2.29
-6.14
-10.07
-14.12
-18.29
-22.58
-26.89
-31.06
-34.92
-38.42
-41.76
-45.35
-49.74
-55.32
-62.06
-69.22
-75.43
-78.95
-78.19
-72.19
-61.02
-45.75
-28.15
-10.25
6.20
19.99
30.60
38.02
42.61
44.82
45.16
44.07
41.99
39.34
36.56
33.99
31.92
30.50
29.83
29.94
30.87
32.60
34.98
37.67
40.14
41.87
42.39
41.55
39.43
36.31
32.57
28.48
24.29
20.16
16.16
12.31
8.53
4.68
0.67
-3.50
-7.72
-11.87
-15.87
-19.75
-23.59
-27.38
-31.00
-34.21
-36.89
-39.17
-41.48
-44.47
-48.72
-54.48
-61.54
-69.06
-75.76
-80.08
-80.56
-76.18
-66.68
-52.72
-35.72
-17.52
0.02
15.48
28.03
37.44
43.87
47.65
49.15
48.78
46.91
43.96
40.36
36.64
33.31
30.89
29.78
30.13
31.81
34.45
37.53
40.49
42.89
44.44
44.95
44.35
42.60
39.82
36.22
32.16
28.02
24.07
20.39
16.84
13.18
9.19
4.85
0.35
-3.97
-7.79
-11.00
-13.74
-16.37
-19.33
-22.85
-26.90
-31.19
-35.27
-38.80
-41.68
-44.20
-46.90
-50.39
-55.15
-61.23
-68.14
-74.83
-79.76
-81.35
-78.32
-70.16
-57.28
-40.94
-22.96
-5.16
10.91
24.29
34.56
41.74
46.08
47.96
47.82
46.10
43.25
39.72
35.95
32.40
29.50
27.66
27.14
27.98
30.01
32.86
36.07
39.19
41.82
43.65
44.43
43.99
42.26
39.32
35.43
31.04
26.65
22.70
19.38
16.55
13.84
10.78
7.09
2.87
-1.42
-5.19
-7.98
-9.80
-11.07
-12.54
-14.86
-18.32
-22.79
-27.82
-32.86
-37.44
-41.29
-44.33
-46.67
-48.70
-50.98
-54.21
-58.89
-65.03
-71.86
-77.84
-81.08
-79.91
-73.43
-61.84
-46.32
-28.68
-10.82
5.67
19.70
30.68
38.45
43.12
45.02
44.64
42.65
39.77
36.70
33.98
31.95
30.73
30.33
30.69
31.75
33.42
35.55
37.91
40.23
42.21
43.65
44.36
44.21
43.04
40.75
37.39
33.21
28.71
24.44
20.85
18.05
15.81
13.70
11.26
8.29
4.82
1.11
-2.58
-6.12
-9.49
-12.83
-16.23
-19.80
-23.48
-27.16
-30.64
-33.71
-36.27
-38.38
-40.35
-42.66
-45.92
-50.57
-56.67
-63.76
-70.80
-76.40
-79.11
-77.76
-71.74
-61.18
-46.88
-30.17
-12.64
4.17
18.94
30.81
39.42
44.86
47.55
48.07
46.97
44.69
41.62
38.12
34.57
31.34
28.79
27.17
26.61
27.10
28.52
30.66
33.21
35.80
38.07
39.64
40.27
39.81
38.21
35.51
31.93
27.78
23.49
19.43
15.80
12.56
9.46
6.19
2.57
-1.32
-5.22
-8.79
-11.82
-14.29
-16.41
-18.52
-20.93
-23.80
-27.07
-30.51
-33.84
-36.83
-39.49
-42.04
-44.90
-48.51
-53.15
-58.84
-65.24
-71.65
-77.06
-80.32
-80.30
-76.15
-67.54
-54.89
-39.29
-22.30
-5.58
9.50
22.09
31.83
38.78
43.13
45.16
45.13
43.37
40.34
36.56
32.62
29.06
26.33
24.78
24.65
25.94
28.44
31.67
35.01
37.87
39.77
40.51
40.05
38.55
36.20
33.24
29.93
26.54
23.28
20.26
17.40
14.49
11.35
7.86
4.09
0.22
-3.59
-7.23
-10.77
-14.36
-18.15
-22.17
-26.25
-30.10
-33.41
-36.07
-38.18
-40.17
-42.60
-46.09
-51.03
-57.39
-64.62
-71.52
-76.51
-77.95
-74.66
-66.32
-53.67
-38.26
-22.01
-6.68
6.62
17.37
25.58
31.47
35.27
37.20
37.45
36.31
34.18
31.47
28.58
25.83
23.50
21.87
21.21
21.75
23.63
26.72
30.72
35.03
38.96
41.84
43.19
42.84
40.93
37.92
34.35
30.76
27.49
24.59
21.86
18.98
15.66
11.80
7.54
3.17
-1.02
-4.86
-8.38
-11.88
-15.67
-19.98
-24.71
-29.44
-33.60
-36.70
-38.61
-39.64
-40.47
-41.94
-44.69
-49.05
-54.94
-61.84
-68.83
-74.62
-77.69
-76.60
-70.45
-59.26
-44.02
-26.48
-8.61
7.95
22.19
33.70
42.49
48.68
52.38
53.71
52.91
50.40
46.69
42.39
38.04
34.11
30.99
28.97
28.23
28.79
30.50
33.05
36.02
38.93
41.33
42.83
43.21
42.43
40.62
38.05
34.98
31.60
27.99
24.19
20.22
16.09
11.83
7.44
2.96
-1.50
-5.73
-9.52
-12.79
-15.65
-18.43
-21.54
-25.18
-29.26
-33.42
-37.18
-40.27
-42.77
-45.02
-47.58
-50.97
-55.58
-61.50
-68.40
-75.42
-81.18
-84.07
-82.65
-76.14
-64.71
-49.44
-32.00
-14.19
2.39
16.67
28.03
36.28
41.58
44.30
44.93
43.94
41.71
38.52
34.68
30.56
26.66
23.57
21.76
21.55
22.89
25.49
28.89
32.51
35.84
38.42
39.90
40.11
39.03
36.81
33.71
30.04
26.00
21.74
17.32
12.78
8.21
3.75
-0.49
-4.40
-7.99
-11.34
-14.57
-17.79
-21.03
-24.29
-27.44
-30.36
-32.98
-35.39
-37.95
-41.16
-45.52
-51.23
-57.97
-64.77
-70.20
-72.66
-70.92
-64.40
-53.35
-38.85
-22.42
-5.78
9.59
22.64
32.84
40.11
44.65
46.78
46.81
45.04
41.78
37.45
32.58
27.77
23.56
20.37
18.42
17.82
18.55
20.46
23.30
26.68
30.09
32.92
34.69
35.09
34.06
31.77
28.53
24.63
20.33
15.83
11.29
6.86
2.59
-1.57
-5.82
-10.39
-15.40
-20.73
-26.03
-30.79
-34.64
-37.53
-39.78
-41.97
-44.74
-48.58
-53.73
-60.06
-67.08
-73.89
-79.23
-81.64
-79.85
-73.14
-61.64
-46.39
-29.01
-11.28
5.26
19.60
31.22
40.03
46.15
49.81
51.23
50.64
48.31
44.58
39.95
35.08
30.69
27.44
25.74
25.74
27.26
29.95
33.39
37.08
40.47
43.04
44.29
43.95
42.02
38.79
34.73
30.22
25.53
20.75
15.89
10.96
6.02
1.19
-3.46
-7.96
-12.41
-16.99
-21.83
-26.93
-32.12
-37.10
-41.54
-45.25
-48.25
-50.87
-53.69
-57.35
-62.37
-68.83
-76.17
-83.18
-88.17
-89.33
-85.33
-75.66
-60.88
-42.46
-22.42
-2.81
14.68
28.93
39.49
46.42
50.25
51.69
51.52
50.38
48.70
46.72
44.50
42.14
39.86
37.95
36.82
36.76
37.88
40.01
42.75
45.58
47.93
49.36
49.58
48.48
46.08
42.52
38.03
32.95
27.65
22.47
17.61
13.08
8.78
4.56
0.39
-3.68
-7.56
-11.23
-14.87
-18.69
-22.91
-27.46
-32.03
-36.19
-39.62
-42.37
-44.87
-47.81
-51.89
-57.50
-64.53
-72.25
-79.39
-84.35
-85.49
-81.54
-72.00
-57.36
-39.07
-19.16
0.25
17.46
31.46
41.94
49.04
53.16
54.72
54.19
52.08
48.97
45.45
42.09
39.33
37.44
36.55
36.69
37.81
39.80
42.46
45.51
48.59
51.27
53.10
53.65
52.61
49.94
45.87
40.92
35.75
30.94
26.81
23.33
20.16
16.86
13.14
8.96
4.56
0.28
-3.61
-7.00
-9.99
-12.77
-15.57
-18.51
-21.64
-24.92
-28.28
-31.63
-34.90
-38.06
-41.23
-44.74
-49.04
-54.65
-61.76
-69.94
-78.01
-84.12
-86.21
-82.68
-72.97
-57.80
-39.01
-18.97
0.08
16.61
29.93
40.01
47.17
51.71
53.87
53.86
51.96
48.72
44.78
40.85
37.53
35.20
34.00
33.94
34.90
36.75
39.30
42.29
45.32
47.88
49.45
49.59
48.13
45.19
41.18
36.66
32.14
27.94
24.05
20.31
16.46
12.38
8.19
4.10
0.35
-2.99
-6.00
-8.87
-11.74
-14.62
-17.47
-20.26
-23.07
-26.02
-29.12
-32.22
-35.13
-37.65
-39.85
-42.04
-44.68
-48.27
-53.14
-59.41
-66.90
-75.01
-82.61
-88.09
-89.66
-85.89
-76.27
-61.51
-43.33
-23.99
-5.55
10.59
23.82
34.09
41.57
46.46
48.85
48.87
46.78
43.06
38.38
33.51
29.19
26.01
24.31
24.21
25.62
28.27
31.79
35.69
39.40
42.35
44.03
44.10
42.50
39.44
35.36
30.79
26.20
21.90
17.97
14.33
10.76
7.07
3.11
-1.16
-5.61
-10.07
-14.31
-18.19
-21.64
-24.74
-27.61
-30.43
-33.32
-36.37
-39.66
-43.34
-47.61
-52.67
-58.62
-65.16
-71.50
-76.32
-78.01
-75.20
-67.18
-54.28
-37.80
-19.69
-2.01
13.62
26.28
35.76
42.38
46.58
48.74
49.07
47.69
44.84
40.87
36.38
32.02
28.40
25.94
24.85
25.08
26.47
28.75
31.58
34.52
37.11
38.89
39.50
38.82
36.88
33.90
30.15
25.92
21.46
16.97
12.60
8.44
4.48
0.68
-3.11
-6.99
-11.05
-15.29
-19.63
-23.93
-28.04
-31.78
-35.04
-37.80
-40.22
-42.65
-45.58
-49.50
-54.74
-61.27
-68.57
-75.62
-81.01
-83.22
-81.01
-73.76
-61.71
-45.98
-28.25
-10.40
6.03
20.00
31.10
39.34
44.88
47.90
48.59
47.21
44.25
40.40
36.43
33.03
30.63
29.36
29.18
29.92
31.43
33.53
36.01
38.54
40.71
42.09
42.39
41.50
39.57
36.85
33.65
30.20
26.62
22.88
18.89
14.59
10.02
5.32
0.75
-3.48
-7.24
-10.56
-13.61
-16.63
-19.88
-23.54
-27.68
-32.21
-36.85
-41.28
-45.14
-48.31
-50.99
-53.73
-57.30
-62.35
-69.05
-76.79
-84.16
-89.23
-90.14
-85.59
-75.36
-60.32
-42.18
-23.02
-4.73
11.31
24.43
34.44
41.56
46.13
48.51
49.08
48.15
46.05
43.10
39.64
36.11
33.01
30.87
30.12
30.93
33.18
36.42
40.09
43.62
46.53
48.43
49.05
48.17
45.76
42.03
37.41
32.55
28.01
24.10
20.71
17.47
13.88
9.67
4.95
0.12
-4.30
-7.96
-10.90
-13.48
-16.24
-19.60
-23.61
-27.98
-32.16
-35.67
-38.34
-40.38
-42.39
-45.10
-49.12
-54.75
-61.83
-69.74
-77.37
-83.30
-86.04
-84.29
-77.40
-65.50
-49.63
-31.45
-12.84
4.46
19.28
31.07
39.82
45.81
49.39
50.84
50.41
48.37
45.14
41.26
37.37
34.05
31.72
30.63
30.79
32.08
34.28
37.06
40.07
42.91
45.21
46.64
46.94
45.99
43.72
40.31
36.07
31.50
27.07
23.08
19.54
16.18
12.61
8.55
3.99
-0.84
-5.53
-9.72
-13.23
-16.08
-18.46
-20.65
-22.94
-25.55
-28.60
-32.07
-35.79
-39.54
-43.13
-46.57
-50.12
-54.23
-59.34
-65.63
-72.71
-79.56
-84.68
-86.45
-83.60
-75.61
-62.88
-46.65
-28.63
-10.58
6.04
20.24
31.51
39.69
44.81
47.05
46.73
44.31
40.40
35.68
30.81
26.39
22.88
20.63
19.87
20.69
22.99
26.45
30.51
34.50
37.81
39.98
40.88
40.62
39.46
37.66
35.31
32.36
28.71
24.31
19.33
14.05
8.83
3.98
-0.36
-4.21
-7.65
-10.81
-13.84
-16.92
-20.28
-24.11
-28.40
-32.93
-37.21
-40.77
-43.35
-45.11
-46.63
-48.73
-52.13
-57.14
-63.45
-70.11
-75.66
-78.50
-77.27
-71.23
-60.49
-46.01
-29.33
-12.19
3.93
18.01
29.49
38.14
43.93
46.90
47.26
45.42
42.00
37.76
33.38
29.38
26.04
23.47
21.72
20.84
20.97
22.20
24.55
27.82
31.57
35.16
37.89
39.20
38.77
36.70
33.40
29.44
25.35
21.41
17.61
13.76
9.66
5.30
0.80
-3.65
-7.93
-12.11
-16.39
-20.94
-25.82
-30.81
-35.51
-39.44
-42.36
-44.38
-46.05
-48.19
-51.66
-57.04
-64.36
-72.94
-81.36
-87.81
-90.42
-87.85
-79.70
-66.58
-50.02
-31.99
-14.31
1.73
15.55
27.11
36.55
43.91
49.06
51.80
52.13
50.36
47.11
43.20
39.33
36.01
33.48
31.84
31.12
31.40
32.77
35.20
38.45
42.01
45.17
47.20
47.59
46.17
43.16
39.00
34.14
28.87
23.30
17.49
11.60
5.89
0.67
-3.84
-7.64
-10.85
-13.63
-16.08
-18.17
-19.87
-21.23
-22.40
-23.57
-24.91
-26.51
-28.52
-31.19
-34.92
-40.16
-47.11
-55.51
-64.43
-72.36
-77.50
-78.28
-73.76
-63.95
-49.75
-32.65
-14.41
3.34
19.33
32.69
42.98
50.13
54.35
56.09
55.86
54.16
51.37
47.91
44.23
40.83
38.23
36.71
36.35
36.98
38.36
40.29
42.60
45.08
47.39
49.03
49.47
48.36
45.68
41.75
37.16
32.51
28.19
24.29
20.62
16.82
12.67
8.11
3.43
-0.97
-4.81
-8.04
-10.93
-13.91
-17.33
-21.28
-25.57
-29.89
-33.97
-37.74
-41.38
-45.28
-49.88
-55.56
-62.51
-70.54
-78.98
-86.52
-91.43
-91.91
-86.72
-75.63
-59.58
-40.51
-20.69
-2.17
13.71
26.37
35.79
42.25
46.07
47.59
47.18
45.31
42.52
39.34
36.21
33.53
31.59
30.66
30.81
31.94
33.76
35.89
37.98
39.82
41.29
42.29
42.56
41.75
39.53
35.76
30.67
24.76
18.66
12.84
7.54
2.69
-1.96
-6.68
-11.62
-16.76
-21.93
-26.89
-31.44
-35.44
-38.92
-42.01
-45.02
-48.32
-52.35
-57.51
-63.89
-71.14
-78.23
-83.60
-85.48
-82.48
-74.05
-60.76
-44.06
-25.84
-7.87
8.56
22.71
34.20
42.86
48.56
51.36
51.55
49.74
46.77
43.45
40.38
37.86
35.96
34.64
33.97
34.04
35.04
37.06
40.04
43.75
47.76
51.45
54.14
55.21
54.21
51.07
46.05
39.72
32.71
25.57
18.59
11.94
5.65
-0.30
-5.99
-11.54
-17.10
-22.70
-28.23
-33.41
-37.91
-41.63
-44.76
-47.81
-51.37
-55.84
-61.35
-67.67
-74.33
-80.50
-85.14
-86.91
-84.55
-77.22
-64.91
-48.60
-30.06
-11.27
5.98
20.60
32.15
40.66
46.39
49.66
50.77
50.06
47.92
44.81
41.21
37.62
34.53
32.37
31.39
31.60
32.82
34.64
36.64
38.41
39.59
39.92
39.21
37.38
34.50
30.80
26.57
22.13
17.69
13.36
9.14
4.97
0.81
-3.40
-7.68
-12.09
-16.60
-21.11
-25.51
-29.61
-33.30
-36.55
-39.42
-42.06
-44.63
-47.34
-50.50
-54.44
-59.52
-65.79
-72.84
-79.61
-84.52
-85.87
-82.35
-73.46
-59.76
-42.66
-24.07
-5.91
10.28
23.58
33.63
40.57
44.76
46.64
46.60
44.93
41.93
37.95
33.47
29.09
25.44
23.04
22.18
22.93
25.11
28.33
32.05
35.63
38.43
39.96
40.01
38.68
36.30
33.25
29.80
26.05
21.91
17.28
12.19
6.75
1.23
-4.16
-9.32
-14.32
-19.36
-24.62
-30.12
-35.60
-40.62
-44.73
-47.67
-49.56
-50.86
-52.22
-54.24
-57.22
-60.97
-64.89
-68.03
-69.29
-67.71
-62.66
-54.02
-42.27
-28.33
-13.49
0.97
13.91
24.59
32.71
38.31
41.69
43.23
43.25
42.01
39.71
36.67
33.29
30.12
27.73
26.58
26.94
28.84
32.04
36.10
40.33
44.02
46.46
47.22
46.21
43.67
40.07
35.91
31.60
27.34
23.19
19.04
14.77
10.26
5.50
0.63
-4.10
-8.43
-12.15
-15.25
-17.90
-20.39
-23.03
-26.06
-29.61
-33.72
-38.35
-43.51
-49.25
-55.71
-63.03
-71.16
-79.56
-87.07
-91.95
-92.30
-86.71
-74.83
-57.61
-37.04
-15.55
4.70
22.28
36.56
47.51
55.29
60.11
62.09
61.39
58.35
53.51
47.67
41.69
36.44
32.61
30.65
30.73
32.66
36.05
40.25
44.56
48.27
50.83
51.92
51.50
49.81
47.20
44.03
40.46
36.47
31.96
26.85
21.24
15.40
9.67
4.35
-0.43
-4.74
-8.82
-12.96
-17.40
-22.21
-27.28
-32.29
-36.88
-40.74
-43.77
-46.20
-48.49
-51.28
-55.16
-60.51
-67.22
-74.59
-81.23
-85.24
-84.72
-78.28
-65.63
-47.75
-26.66
-4.78
15.67
33.14
46.86
56.70
62.87
65.76
65.83
63.57
59.53
54.23
48.21
42.02
36.27
31.60
28.50
27.27
27.88
30.03
33.27
37.03
40.79
44.02
46.27
47.21
46.74
44.98
42.25
38.86
35.07
30.91
26.32
21.24
15.73
10.03
4.47
-0.60
-5.00
-8.78
-12.22
-15.79
-19.89
-24.70
-29.99
-35.20
-39.63
-42.80
-44.68
-45.79
-47.07
-49.56
-54.00
-60.49
-68.39
-76.29
-82.33
-84.58
-81.57
-72.73
-58.53
-40.45
-20.53
-0.92
16.61
30.90
41.48
48.38
51.93
52.58
50.89
47.36
42.56
37.03
31.32
26.02
21.67
18.70
17.33
17.53
19.05
21.56
24.67
28.01
31.12
33.53
34.72
34.33
32.25
28.73
24.26
19.39
14.57
9.97
5.54
1.07
-3.66
-8.80
-14.36
-20.20
-25.99
-31.30
-35.75
-39.17
-41.69
-43.81
-46.25
-49.70
-54.59
-60.83
-67.71
-73.93
-77.82
-77.80
-72.82
-62.75
-48.49
-31.65
-14.15
2.36
16.79
28.61
37.68
43.99
47.56
48.48
47.01
43.65
39.02
33.70
28.15
22.66
17.55
13.22
10.23
9.08
9.98
12.70
16.53
20.47
23.55
25.11
24.96
23.31
20.66
17.52
14.24
10.92
7.42
3.52
-0.93
-5.92
-11.23
-16.56
-21.70
-26.58
-31.34
-36.17
-41.35
-47.01
-53.13
-59.39
-65.05
-68.95
-69.68
-65.98
-57.25
-43.89
-27.29
-9.41
7.78
22.84
35.02
44.13
50.23
53.42
53.73
51.28
46.37
39.56
31.65
23.54
16.13
10.15
6.11
4.12
3.97
5.15
7.07
9.20
11.13
12.59
13.32
13.05
11.51
8.54
4.15
-1.43
-7.76
-14.38
-20.82
-26.78
-32.07
-36.71
-40.91
-45.05
-49.62
-55.03
-61.44
-68.57
-75.49
-80.77
-82.72
-79.89
-71.51
-57.84
-40.07
-20.09
0.01
18.42
33.88
45.77
53.93
58.59
60.13
59.02
55.79
51.01
45.25
39.11
33.17
28.01
24.08
21.68
20.88
21.54
23.31
25.76
28.37
30.63
32.10
32.40
31.25
28.51
24.17
18.38
11.47
3.88
-3.80
-11.05
-17.47
-22.93
-27.58
-31.86
-36.35
-41.72
-48.45
-56.67
-65.94
-75.17
-82.70
-86.64
-85.35
-77.94
-64.59
-46.53
-25.79
-4.71
14.58
30.58
42.57
50.58
55.18
57.12
57.10
55.53
52.63
48.53
43.49
38.04
32.86
28.68
26.00
25.01
25.58
27.37
29.83
32.37
34.36
35.19
34.47
32.03
28.05
22.95
17.25
11.36
5.49
-0.34
-6.23
-12.20
-18.15
-23.85
-29.01
-33.44
-37.12
-40.34
-43.61
-47.57
-52.74
-59.29
-66.78
-74.09
-79.51
-81.11
-77.33
-67.47
-52.07
-32.75
-11.86
8.30
25.94
40.13
50.74
58.07
62.54
64.50
64.16
61.81
57.83
52.80
47.34
42.09
37.60
34.31
32.55
32.45
33.91
36.58
39.89
43.23
45.98
47.70
48.03
46.79
43.94
39.61
34.12
27.89
21.42
15.10
9.24
3.94
-0.82
-5.20
-9.43
-13.78
-18.45
-23.50
-28.76
-33.83
-38.30
-41.82
-44.39
-46.31
-48.17
-50.67
-54.47
-59.96
-67.06
-75.06
-82.56
-87.71
-88.57
-83.70
-72.65
-56.17
-36.03
-14.49
6.21
24.36
38.96
49.66
56.56
60.04
60.61
58.84
55.35
50.78
45.77
40.88
36.62
33.37
31.38
30.76
31.51
33.51
36.49
40.07
43.72
46.81
48.72
48.99
47.43
44.19
39.69
34.51
29.18
24.06
19.27
14.74
10.29
5.73
1.00
-3.78
-8.37
-12.50
-15.98
-18.91
-21.61
-24.49
-27.86
-31.73
-35.81
-39.62
-42.81
-45.33
-47.51
-49.98
-53.42
-58.31
-64.70
-72.06
-79.19
-84.37
-85.71
-81.68
-71.65
-56.16
-36.91
-16.22
3.55
20.63
34.07
43.68
49.77
52.84
53.37
51.80
48.59
44.27
39.39
34.54
30.22
26.80
24.52
23.52
23.83
25.43
28.19
31.84
35.87
39.61
42.30
43.34
42.44
39.70
35.62
30.88
26.15
21.84
18.07
14.62
11.19
7.51
3.55
-0.57
-4.55
-8.19
-11.46
-14.47
-17.41
-20.37
-23.35
-26.28
-29.11
-31.88
-34.70
-37.65
-40.72
-43.87
-47.14
-50.76
-55.09
-60.46
-66.81
-73.42
-78.92
-81.53
-79.68
-72.45
-60.01
-43.59
-25.07
-6.49
10.49
24.84
36.11
44.25
49.32
51.45
50.86
47.97
43.46
38.18
32.94
28.37
24.87
22.59
21.61
21.95
23.58
26.36
29.99
33.95
37.65
40.53
42.13
42.18
40.61
37.59
33.43
28.63
23.71
19.06
14.86
11.07
7.46
3.78
-0.09
-4.03
-7.80
-11.12
-13.90
-16.25
-18.53
-21.08
-24.14
-27.68
-31.50
-35.27
-38.73
-41.77
-44.47
-47.08
-49.95
-53.47
-57.98
-63.57
-69.87
-75.88
-80.10
-80.83
-76.75
-67.36
-53.25
-35.91
-17.35
0.48
16.17
28.89
38.42
44.87
48.51
49.67
48.70
46.03
42.14
37.59
32.95
28.76
25.50
23.53
23.03
23.96
26.07
28.96
32.16
35.23
37.81
39.60
40.36
39.94
38.29
35.51
31.88
27.75
23.48
19.29
15.23
11.21
7.14
2.99
-1.11
-4.95
-8.35
-11.24
-13.78
-16.24
-18.94
-22.05
-25.61
-29.41
-33.14
-36.52
-39.37
-41.77
-43.98
-46.48
-49.78
-54.32
-60.17
-66.87
-73.37
-78.12
-79.53
-76.36
-68.19
-55.56
-39.77
-22.54
-5.55
9.88
22.89
33.03
40.17
44.43
46.10
45.62
43.52
40.30
36.41
32.28
28.31
24.94
22.58
21.52
21.86
23.45
25.99
29.04
32.16
34.88
36.80
37.63
37.22
35.60
32.95
29.54
25.64
21.53
17.39
13.36
9.54
5.94
2.53
-0.78
-4.05
-7.33
-10.64
-14.01
-17.51
-21.14
-24.86
-28.48
-31.77
-34.55
-36.81
-38.77
-40.83
-43.48
-47.15
-52.14
-58.41
-65.51
-72.44
-77.75
-79.80
-77.22
-69.38
-56.66
-40.35
-22.29
-4.40
11.80
25.38
35.90
43.38
48.01
50.08
49.93
47.93
44.49
40.09
35.21
30.42
26.24
23.15
21.50
21.43
22.85
25.49
28.88
32.45
35.64
37.97
39.15
39.10
37.96
35.92
33.18
29.89
26.13
22.03
17.72
13.35
9.08
4.95
0.89
-3.22
-7.49
-11.95
-16.50
-20.99
-25.25
-29.19
-32.78
-36.11
-39.35
-42.73
-46.55
-51.10
-56.53
-62.67
-68.95
-74.26
-77.21
-76.41
-70.96
-60.74
-46.52
-29.78
-12.32
4.22
18.66
30.41
39.34
45.54
49.16
50.36
49.33
46.46
42.30
37.56
32.93
28.96
26.02
24.25
23.74
24.49
26.38
29.15
32.32
35.29
37.47
38.48
38.20
36.76
34.45
31.53
28.22
24.61
20.77
16.74
12.61
8.43
4.22
0.03
-4.14
-8.22
-12.17
-15.96
-19.59
-23.12
-26.60
-30.08
-33.50
-36.84
-40.15
-43.56
-47.40
-52.01
-57.55
-63.69
-69.51
-73.54
-74.12
-69.95
-60.59
-46.71
-29.91
-12.22
4.53
19.08
30.91
39.97
46.41
50.35
51.85
51.03
48.22
43.99
39.04
34.07
29.62
26.08
23.66
22.52
22.68
24.06
26.40
29.27
32.14
34.49
35.92
36.22
35.41
33.63
31.09
27.99
24.49
20.72
16.86
13.04
9.39
5.94
2.60
-0.86
-4.65
-8.90
-13.55
-18.34
-22.89
-26.89
-30.22
-32.99
-35.54
-38.34
-41.84
-46.35
-51.90
-58.07
-63.94
-68.21
-69.43
-66.41
-58.64
-46.48
-31.06
-14.00
3.06
18.74
32.08
42.54
49.88
54.11
55.37
53.98
50.46
45.44
39.67
33.86
28.67
24.58
21.83
20.46
20.30
21.07
22.46
24.15
25.83
27.24
28.15
28.42
27.96
26.77
24.91
22.41
19.39
15.94
12.16
8.15
3.94
-0.44
-4.97
-9.59
-14.17
-18.54
-22.53
-26.03
-29.07
-31.78
-34.43
-37.36
-40.92
-45.39
-50.79
-56.80
-62.65
-67.25
-69.37
-67.92
-62.30
-52.52
-39.32
-23.97
-8.06
6.95
19.93
30.23
37.64
42.28
44.37
44.20
42.11
38.49
33.83
28.68
23.59
19.08
15.51
13.21
12.32
12.90
14.79
17.65
20.97
24.12
26.49
27.60
27.23
25.44
22.54
19.00
15.29
11.74
8.43
5.17
1.69
-2.24
-6.70
-11.52
-16.45
-21.20
-25.60
-29.63
-33.41
-37.21
-41.34
-46.10
-51.60
-57.54
-63.10
-67.02
-67.86
-64.46
-56.37
-44.09
-28.88
-12.43
3.57
17.83
29.54
38.33
44.18
47.25
47.82
46.31
43.15
38.83
33.82
28.59
23.61
19.36
16.27
14.60
14.40
15.48
17.46
19.94
22.56
25.04
27.05
28.21
28.14
26.55
23.45
19.20
14.37
9.56
5.12
1.05
-2.87
-6.96
-11.37
-16.10
-20.89
-25.46
-29.60
-33.30
-36.72
-40.21
-44.18
-48.98
-54.80
-61.52
-68.57
-74.93
-79.23
-80.03
-76.23
-67.44
-54.21
-37.85
-20.17
-2.89
12.59
25.48
35.41
42.41
46.68
48.56
48.50
47.00
44.53
41.41
37.89
34.23
30.78
28.00
26.34
26.13
27.29
29.46
32.09
34.62
36.63
37.86
38.06
36.98
34.38
30.17
24.62
18.38
12.32
7.15
3.20
0.21
-2.48
-5.63
-9.70
-14.68
-20.11
-25.33
-29.83
-33.44
-36.33
-38.89
-41.57
-44.75
-48.76
-53.84
-59.99
-66.80
-73.27
-77.89
-78.95
-75.11
-65.92
-51.98
-34.83
-16.48
1.16
16.56
28.83
37.68
43.28
46.14
46.97
46.43
45.02
43.03
40.59
37.76
34.71
31.77
29.38
27.99
27.93
29.24
31.75
35.00
38.43
41.44
43.49
44.19
43.39
41.11
37.57
33.18
28.42
23.76
19.52
15.78
12.38
9.02
5.42
1.54
-2.52
-6.50
-10.22
-13.65
-16.95
-20.31
-23.84
-27.48
-31.04
-34.33
-37.26
-39.92
-42.63
-45.87
-50.17
-55.86
-62.85
-70.29
-76.65
-79.97
-78.48
-71.24
-58.53
-41.83
-23.37
-5.42
10.30
22.90
32.29
38.84
43.10
45.50
46.32
45.72
43.86
41.03
37.63
34.15
31.11
28.88
27.70
27.67
28.78
30.95
34.00
37.61
41.28
44.38
46.29
46.56
45.02
41.86
37.60
32.87
28.32
24.36
21.08
18.30
15.64
12.72
9.33
5.49
1.42
-2.56
-6.24
-9.57
-12.72
-15.97
-19.54
-23.50
-27.68
-31.73
-35.28
-38.15
-40.41
-42.50
-45.04
-48.70
-53.93
-60.75
-68.56
-76.15
-81.92
-84.21
-81.75
-74.07
-61.55
-45.45
-27.46
-9.39
7.21
21.28
32.28
40.10
44.98
47.39
47.87
46.91
44.93
42.20
38.99
35.58
32.37
29.76
28.17
27.83
28.77
30.82
33.60
36.59
39.19
40.87
41.17
39.93
37.30
33.76
29.96
26.51
23.80
21.82
20.25
18.52
16.05
12.55
8.07
2.98
-2.13
-6.73
-10.52
-13.49
-15.90
-18.09
-20.35
-22.89
-25.78
-29.06
-32.74
-36.77
-41.00
-45.22
-49.26
-53.13
-57.12
-61.63
-66.85
-72.42
-77.21
-79.54
-77.70
-70.62
-58.36
-42.17
-24.03
-6.05
10.09
23.47
33.82
41.28
46.08
48.46
48.67
47.07
44.15
40.45
36.49
32.68
29.32
26.71
25.16
24.94
26.17
28.69
32.04
35.59
38.69
40.86
41.87
41.66
40.28
37.81
34.46
30.53
26.46
22.67
19.40
16.65
14.14
11.54
8.58
5.20
1.50
-2.34
-6.19
-10.07
-13.99
-18.01
-22.12
-26.25
-30.29
-34.08
-37.46
-40.31
-42.63
-44.59
-46.58
-49.12
-52.76
-57.73
-63.86
-70.43
-76.21
-79.74
-79.68
-75.15
-66.03
-52.94
-37.17
-20.30
-3.88
10.91
23.34
33.11
40.27
45.09
47.89
48.98
48.61
46.92
44.04
40.21
35.83
31.52
28.00
25.90
25.53
26.84
29.42
32.60
35.70
38.11
39.49
39.69
38.78
36.98
34.55
31.71
28.61
25.31
21.87
18.35
14.82
11.30
7.76
4.13
0.39
-3.41
-7.10
-10.48
-13.49
-16.24
-19.01
-22.10
-25.66
-29.56
-33.50
-37.17
-40.51
-43.81
-47.55
-52.22
-57.93
-64.20
-69.98
-73.88
-74.58
-71.15
-63.36
-51.69
-37.23
-21.43
-5.81
8.41
20.40
29.87
36.83
41.50
44.07
44.69
43.48
40.71
36.84
32.48
28.21
24.51
21.66
19.87
19.29
20.06
22.19
25.46
29.33
33.06
35.87
37.23
36.95
35.24
32.56
29.38
26.07
22.79
19.53
16.19
12.64
8.81
4.72
0.48
-3.78
-7.94
-11.95
-15.89
-19.90
-24.18
-28.83
-33.81
-38.92
-43.91
-48.53
-52.68
-56.52
-60.43
-64.90
-70.43
-77.21
-85.00
-92.90
-99.52
-103.13
-102.13
-95.47
-82.97
-65.44
-44.45
-21.94
0.14
20.23
37.28
50.81
60.80
67.59
71.64
73.36
73.06
70.96
67.32
62.63
57.60
53.08
49.75
47.94
47.59
48.39
49.92
51.84
53.86
55.62
56.68
56.59
55.06
52.10
48.05
43.39
38.55
33.72
28.90
24.01
19.02
13.98
9.06
4.40
0.08
-3.95
-7.78
-11.59
-15.56
-19.79
-24.27
-28.84
-33.25
-37.28
-40.87
-44.19
-47.59
-51.43
-56.04
-61.60
-67.98
-74.71
-80.84
-85.06
-85.86
-82.06
-73.18
-59.74
-43.09
-25.05
-7.36
8.68
22.29
33.02
40.69
45.20
46.67
45.50
42.40
38.21
33.76
29.67
26.27
23.68
21.91
20.93
20.73
21.29
22.52
24.26
26.33
28.53
30.59
32.23
33.10
32.84
31.15
27.96
23.50
18.26
12.94
8.14
4.19
1.03
-1.79
-4.88
-8.80
-13.78
-19.67
-25.94
-31.94
-37.09
-41.12
-44.08
-46.39
-48.72
-51.78
-56.17
-62.12
-69.28
-76.68
-82.73
-85.62
-83.79
-76.42
-63.76
-47.05
-28.13
-8.97
8.81
24.15
36.51
45.76
51.96
55.34
56.21
55.02
52.28
48.51
44.18
39.66
35.30
31.46
28.54
26.92
26.86
28.39
31.24
34.85
38.46
41.26
42.56
41.94
39.39
35.30
30.38
25.38
20.91
17.28
14.42
12.03
9.74
7.26
4.45
1.34
-2.02
-5.60
-9.41
-13.44
-17.58
-21.62
-25.33
-28.62
-31.66
-34.87
-38.78
-43.82
-50.11
-57.33
-64.77
-71.35
-75.87
-77.14
-74.25
-66.80
-55.06
-40.02
-23.14
-6.09
9.68
23.15
33.79
41.46
46.23
48.33
48.09
46.04
42.83
39.20
35.84
33.17
31.39
30.45
30.17
30.43
31.24
32.68
34.80
37.45
40.22
42.52
43.81
43.73
42.25
39.60
36.13
32.11
27.70
22.94
17.88
12.62
7.32
2.12
-2.91
-7.79
-12.65
-17.56
-22.47
-27.17
-31.33
-34.63
-36.91
-38.29
-39.15
-40.13
-41.91
-45.12
-50.07
-56.61
-64.01
-70.95
-75.72
-76.56
-72.22
-62.36
-47.73
-29.96
-11.15
6.69
22.07
34.26
43.13
48.99
52.30
53.47
52.88
50.84
47.64
43.55
38.90
34.10
29.71
26.39
24.75
25.16
27.62
31.69
36.58
41.36
45.18
47.53
48.23
47.40
45.30
42.21
38.41
34.11
29.52
24.77
19.94
14.96
9.79
4.37
-1.21
-6.70
-11.84
-16.45
-20.55
-24.36
-28.13
-31.99
-35.90
-39.64
-43.07
-46.21
-49.28
-52.67
-56.81
-61.97
-68.14
-74.82
-80.94
-84.99
-85.34
-80.72
-70.72
-55.99
-38.09
-19.03
-0.73
15.36
28.38
38.00
44.27
47.48
48.13
46.79
44.09
40.56
36.58
32.45
28.44
24.89
22.21
20.74
20.75
22.26
25.08
28.86
33.06
37.14
40.59
43.02
44.17
43.96
42.37
39.49
35.45
30.49
24.97
19.35
14.00
9.13
4.68
0.35
-4.19
-9.13
-14.41
-19.73
-24.69
-28.98
-32.47
-35.27
-37.72
-40.24
-43.27
-47.12
-51.91
-57.48
-63.27
-68.33
-71.39
-71.09
-66.32
-56.60
-42.40
-25.06
-6.56
11.08
26.34
38.45
47.35
53.37
56.85
57.95
56.72
53.30
48.03
41.56
34.62
28.00
22.35
18.20
15.91
15.63
17.22
20.20
23.92
27.69
31.03
33.66
35.42
36.14
35.58
33.49
29.80
24.68
18.60
12.13
5.84
0.07
-5.04
-9.61
-13.85
-17.98
-22.14
-26.28
-30.26
-33.87
-36.99
-39.69
-42.19
-44.86
-48.09
-52.18
-57.30
-63.30
-69.63
-75.23
-78.66
-78.44
-73.43
-63.29
-48.61
-30.85
-11.96
6.07
21.66
33.81
42.20
47.07
48.99
48.57
46.34
42.66
37.82
32.18
26.26
20.70
16.15
13.10
11.79
12.17
13.99
16.85
20.33
23.93
27.17
29.58
30.78
30.59
28.99
26.21
22.57
18.44
14.10
9.68
5.10
0.15
-5.35
-11.41
-17.74
-23.89
-29.43
-34.22
-38.56
-43.16
-48.78
-55.87
-64.22
-72.84
-80.11
-84.25
-83.77
-77.86
-66.66
-51.08
-32.68
-13.20
5.69
22.65
36.72
47.34
54.33
57.83
58.28
56.27
52.45
47.39
41.49
35.04
28.32
21.80
16.09
11.93
9.96
10.43
13.14
17.44
22.35
26.88
30.19
31.78
31.53
29.66
26.61
22.84
18.72
14.41
9.83
4.80
-0.84
-7.12
-13.85
-20.74
-27.45
-33.79
-39.69
-45.26
-50.74
-56.46
-62.70
-69.51
-76.44
-82.47
-86.06
-85.56
-79.76
-68.36
-52.18
-32.94
-12.77
6.36
23.00
36.39
46.32
52.91
56.39
57.08
55.28
51.43
46.11
39.97
33.76
28.10
23.50
20.30
18.70
18.74
20.35
23.26
27.01
30.98
34.50
37.00
38.07
37.53
35.36
31.73
26.97
21.54
15.92
10.43
5.15
-0.14
-5.80
-12.04
-18.81
-25.71
-32.23
-37.93
-42.67
-46.62
-50.18
-53.83
-58.03
-63.08
-69.00
-75.33
-81.01
-84.47
-84.01
-78.32
-67.01
-50.86
-31.60
-11.44
7.53
23.88
36.89
46.51
53.00
56.68
57.80
56.57
53.31
48.58
43.11
37.72
33.13
29.73
27.65
26.82
27.10
28.44
30.76
33.83
37.18
40.08
41.81
41.82
40.00
36.62
32.24
27.44
22.67
18.15
13.84
9.58
5.15
0.39
-4.78
-10.31
-16.12
-21.98
-27.65
-32.88
-37.38
-41.06
-44.02
-46.64
-49.59
-53.56
-59.06
-66.03
-73.70
-80.64
-85.01
-85.09
-79.71
-68.60
-52.55
-33.14
-12.43
7.53
25.10
39.25
49.59
56.25
59.62
60.25
58.68
55.39
50.84
45.52
39.95
34.72
30.49
27.80
27.00
28.10
30.78
34.48
38.54
42.36
45.43
47.34
47.73
46.37
43.21
38.55
32.94
27.05
21.44
16.36
11.80
7.52
3.28
-0.99
-5.30
-9.56
-13.74
-17.91
-22.08
-26.25
-30.32
-34.13
-37.54
-40.52
-43.24
-46.05
-49.42
-53.90
-59.88
-67.37
-75.79
-83.88
-89.83
-91.72
-88.07
-78.29
-62.91
-43.52
-22.30
-1.54
16.88
31.75
42.64
49.76
53.62
54.85
53.95
51.28
47.15
41.95
36.24
30.78
26.28
23.25
21.91
22.14
23.66
26.12
29.25
32.76
36.35
39.55
41.79
42.50
41.28
38.07
33.22
27.37
21.30
15.68
10.84
6.76
3.05
-0.86
-5.50
-11.16
-17.74
-24.78
-31.59
-37.51
-42.15
-45.54
-48.15
-50.63
-53.65
-57.73
-63.03
-69.31
-75.83
-81.36
-84.33
-83.18
-76.82
-64.96
-48.33
-28.52
-7.58
12.49
30.07
44.14
54.30
60.62
63.53
63.69
61.78
58.43
54.17
49.41
44.50
39.77
35.54
32.11
29.74
28.62
28.85
30.39
33.01
36.25
39.49
42.07
43.42
43.28
41.67
38.85
35.16
30.84
26.06
20.96
15.68
10.39
5.26
0.30
-4.60
-9.68
-15.11
-20.92
-26.88
-32.66
-37.84
-42.09
-45.31
-47.62
-49.43
-51.32
-54.00
-58.04
-63.72
-70.78
-78.35
-84.96
-88.75
-87.94
-81.32
-68.67
-50.89
-29.82
-7.76
13.12
31.21
45.66
56.23
63.15
66.76
67.51
65.86
62.31
57.43
51.77
45.87
40.27
35.52
32.16
30.59
30.96
33.09
36.46
40.38
44.10
46.97
48.49
48.37
46.53
43.16
38.66
33.57
28.40
23.48
18.87
14.41
9.86
5.06
-0.02
-5.23
-10.31
-15.07
-19.43
-23.48
-27.46
-31.62
-36.11
-40.82
-45.49
-49.73
-53.33
-56.33
-59.15
-62.47
-67.05
-73.42
-81.60
-90.87
-99.68
-105.91
-107.35
-102.31
-90.25
-71.96
-49.43
-25.28
-2.09
18.15
34.36
46.22
54.03
58.31
59.66
58.60
55.58
51.09
45.65
39.89
34.49
30.10
27.24
26.18
26.95
29.33
32.90
37.16
41.51
45.38
48.26
49.74
49.60
47.87
44.77
40.64
35.82
30.52
24.89
18.99
12.88
6.67
0.42
-5.83
-12.09
-18.35
-24.50
-30.31
-35.51
-39.93
-43.53
-46.53
-49.23
-52.06
-55.45
-59.87
-65.61
-72.64
-80.27
-87.09
-91.20
-90.67
-84.23
-71.67
-53.98
-33.05
-11.09
9.81
28.14
42.94
53.82
60.78
64.07
64.17
61.67
57.30
51.81
45.90
40.14
34.91
30.43
26.89
24.48
23.46
24.05
26.31
30.02
34.56
39.12
42.81
44.90
45.02
43.14
39.54
34.69
29.12
23.34
17.71
12.42
7.50
2.80
-1.83
-6.55
-11.47
-16.60
-21.88
-27.20
-32.35
-37.08
-41.14
-44.32
-46.67
-48.57
-50.72
-53.95
-58.94
-65.82
-73.99
-82.06
-88.10
-90.08
-86.45
-76.53
-60.80
-40.81
-18.80
2.85
22.18
37.97
49.81
57.87
62.55
64.26
63.30
60.03
54.98
48.91
42.64
36.89
32.10
28.44
26.00
24.83
25.06
26.72
29.59
33.20
36.78
39.62
41.19
41.31
40.12
37.91
34.97
31.49
27.52
22.99
17.88
12.31
6.53
0.93
-4.16
-8.62
-12.65
-16.65
-21.08
-26.14
-31.60
-36.87
-41.33
-44.61
-46.85
-48.70
-50.99
-54.51
-59.68
-66.49
-74.35
-82.16
-88.34
-91.03
-88.60
-80.06
-65.60
-46.60
-25.25
-4.02
15.14
31.04
43.33
52.19
57.93
60.81
60.98
58.57
53.82
47.19
39.41
31.45
24.33
18.94
15.80
14.94
15.99
18.34
21.46
24.91
28.41
31.60
34.01
35.05
34.26
31.51
27.08
21.66
16.04
10.82
6.25
2.12
-1.98
-6.48
-11.60
-17.23
-22.99
-28.42
-33.17
-37.14
-40.54
-43.81
-47.49
-52.07
-57.81
-64.69
-72.23
-79.43
-84.85
-86.78
-83.70
-74.80
-60.34
-41.73
-21.08
-0.65
17.82
33.36
45.73
55.04
61.36
64.60
64.67
61.72
56.34
49.45
42.12
35.27
29.52
25.21
22.51
21.50
22.11
24.13
27.13
30.52
33.68
36.10
37.44
37.58
36.50
34.30
31.10
27.11
22.52
17.51
12.13
6.32
-0.10
-7.19
-14.88
-22.79
-30.39
-37.10
-42.50
-46.56
-49.62
-52.35
-55.63
-60.23
-66.56
-74.37
-82.58
-89.41
-92.71
-90.63
-82.23
-67.81
-48.85
-27.55
-6.21
13.32
29.88
43.01
52.67
59.01
62.28
62.73
60.70
56.68
51.21
44.97
38.65
32.90
28.28
25.19
23.84
24.23
26.14
29.24
33.05
37.10
40.88
43.86
45.55
45.56
43.71
40.14
35.29
29.79
24.18
18.77
13.49
8.06
2.12
-4.49
-11.65
-18.94
-25.85
-31.95
-37.03
-41.14
-44.58
-47.86
-51.55
-56.25
-62.31
-69.65
-77.50
-84.36
-88.33
-87.58
-80.96
-68.44
-51.13
-30.98
-10.18
9.34
26.27
39.86
49.92
56.51
59.92
60.57
58.95
55.59
50.95
45.40
39.34
33.22
27.62
23.16
20.38
19.56
20.68
23.36
27.03
31.01
34.60
37.22
38.38
37.80
35.43
31.51
26.49
20.99
15.49
10.24
5.19
0.04
-5.48
-11.53
-17.95
-24.35
-30.25
-35.25
-39.21
-42.38
-45.30
-48.73
-53.32
-59.37
-66.51
-73.63
-79.03
-80.83
-77.57
-68.61
-54.39
-36.31
-16.38
3.33
21.05
35.61
46.45
53.55
57.21
57.89
56.05
52.16
46.69
40.17
33.21
26.49
20.67
16.28
13.69
13.02
14.19
16.85
20.46
24.32
27.64
29.76
30.25
28.99
26.19
22.28
17.66
12.62
7.31
1.73
-4.16
-10.31
-16.61
-22.82
-28.69
-34.04
-38.78
-43.06
-47.24
-51.80
-57.18
-63.59
-70.75
-77.77
-83.16
-85.17
-82.21
-73.39
-58.91
-40.08
-19.02
1.90
20.60
35.76
46.86
54.02
57.76
58.68
57.34
54.23
49.76
44.37
38.56
32.87
27.88
24.12
21.90
21.31
22.17
24.15
26.81
29.74
32.52
34.73
35.87
35.49
33.28
29.28
23.91
17.88
11.93
6.50
1.59
-3.15
-8.22
-13.96
-20.37
-27.11
-33.65
-39.51
-44.42
-48.49
-52.11
-55.88
-60.42
-66.15
-73.13
-80.82
-88.06
-93.13
-94.17
-89.71
-79.19
-63.20
-43.35
-21.84
-0.87
17.87
33.41
45.44
54.01
59.33
61.69
61.43
59.02
55.07
50.20
45.02
40.03
35.66
32.27
30.18
29.63
30.70
33.19
36.64
40.33
43.47
45.41
45.81
44.66
42.18
38.69
34.45
29.64
24.37
18.80
13.13
7.59
2.32
-2.73
-7.72
-12.92
-18.51
-24.45
-30.50
-36.22
-41.20
-45.18
-48.22
-50.72
-53.35
-56.87
-61.87
-68.50
-76.23
-83.91
-89.81
-92.08
-89.17
-80.31
-65.80
-46.93
-25.71
-4.31
15.38
32.11
45.24
54.65
60.53
63.17
63.00
60.56
56.53
51.62
46.51
41.76
37.78
34.84
33.15
32.83
33.84
35.95
38.74
41.69
44.25
46.01
46.66
46.03
44.12
41.07
37.15
32.70
27.97
23.15
18.24
13.21
8.05
2.85
-2.21
-7.01
-11.55
-15.94
-20.35
-24.85
-29.37
-33.74
-37.71
-41.18
-44.22
-47.08
-50.21
-54.13
-59.31
-65.91
-73.56
-81.24
-87.30
-89.87
-87.38
-79.06
-65.22
-47.19
-26.96
-6.62
12.04
27.85
40.25
49.17
54.81
57.50
57.67
55.75
52.26
47.78
42.87
38.12
34.02
30.97
29.21
28.86
29.84
31.96
34.89
38.15
41.20
43.50
44.64
44.35
42.66
39.75
35.97
31.72
27.32
22.97
18.73
14.53
10.26
5.90
1.46
-2.95
-7.24
-11.42
-15.54
-19.70
-23.92
-28.04
-31.83
-35.05
-37.69
-39.97
-42.38
-45.44
-49.60
-55.12
-61.92
-69.54
-77.00
-82.80
-85.23
-82.75
-74.56
-60.98
-43.39
-23.89
-4.66
12.58
26.84
37.80
45.52
50.24
52.20
51.64
48.94
44.61
39.29
33.68
28.41
24.00
20.79
18.96
18.56
19.53
21.64
24.53
27.68
30.47
32.29
32.69
31.48
28.78
24.96
20.49
15.82
11.25
6.89
2.72
-1.42
-5.71
-10.32
-15.28
-20.52
-25.74
-30.54
-34.55
-37.56
-39.68
-41.37
-43.30
-46.21
-50.55
-56.20
-62.36
-67.63
-70.26
-68.72
-62.10
-50.47
-34.89
-17.10
0.97
17.64
31.75
42.76
50.57
55.34
57.32
56.83
54.21
49.89
44.40
38.37
32.43
27.15
22.97
20.17
18.86
18.96
20.31
22.62
25.52
28.54
31.12
32.74
33.01
31.78
29.14
25.47
21.21
16.79
12.52
8.51
4.77
1.17
-2.51
-6.53
-11.14
-16.46
-22.34
-28.40
-34.17
-39.29
-43.76
-47.97
-52.49
-57.74
-63.72
-69.89
-75.26
-78.65
-79.03
-75.66
-68.21
-56.88
-42.34
-25.71
-8.41
8.08
22.47
33.90
41.99
46.83
48.80
48.43
46.24
42.69
38.19
33.14
27.92
22.93
18.61
15.34
13.46
13.09
14.17
16.37
19.22
22.29
25.16
27.49
29.04
29.55
28.79
26.70
23.36
19.11
14.35
9.38
4.35
-0.81
-6.17
-11.68
-17.10
-22.17
-26.68
-30.68
-34.45
-38.39
-42.91
-48.26
-54.37
-60.76
-66.46
-70.10
-70.22
-65.73
-56.32
-42.69
-26.38
-9.29
6.87
20.94
32.42
41.27
47.55
51.37
52.70
51.61
48.34
43.38
37.39
31.08
25.15
20.18
16.60
14.69
14.49
15.82
18.27
21.27
24.20
26.51
27.80
27.85
26.61
24.11
20.46
15.83
10.44
4.57
-1.45
-7.33
-12.88
-18.09
-23.09
-28.11
-33.40
-39.12
-45.35
-51.97
-58.62
-64.62
-68.91
-70.26
-67.53
-60.11
-48.28
-33.18
-16.60
-0.44
13.85
25.45
34.22
40.40
44.23
45.83
45.20
42.40
37.71
31.63
24.85
18.11
12.10
7.42
4.47
3.45
4.28
6.51
9.51
12.51
14.87
16.20
16.36
15.37
13.29
10.15
5.99
0.86
-5.05
-11.42
-17.92
-24.23
-30.14
-35.62
-40.76
-45.80
-51.09
-57.08
-64.11
-72.24
-80.90
-88.83
-94.23
-95.18
-90.32
-79.33
-63.07
-43.36
-22.38
-2.15
15.85
30.82
42.42
50.58
55.41
57.15
56.21
53.19
48.79
43.70
38.53
33.78
29.86
27.13
25.84
26.10
27.77
30.44
33.47
36.11
37.69
37.75
36.18
33.17
29.15
24.55
19.67
14.57
9.10
3.06
-3.63
-10.80
-18.06
-24.97
-31.23
-36.83
-42.07
-47.44
-53.44
-60.38
-68.25
-76.48
-83.93
-88.98
-89.81
-84.95
-73.80
-56.94
-36.10
-13.72
7.77
26.49
41.51
52.67
60.35
65.05
67.23
67.24
65.39
62.09
57.82
53.13
48.57
44.62
41.64
39.86
39.36
40.05
41.64
43.73
45.82
47.44
48.22
47.91
46.37
43.62
39.75
34.97
29.56
23.86
18.22
12.85
7.85
3.09
-1.73
-6.86
-12.43
-18.29
-24.14
-29.56
-34.29
-38.27
-41.67
-44.84
-48.20
-52.14
-57.01
-63.01
-70.01
-77.34
-83.69
-87.29
-86.29
-79.42
-66.45
-48.39
-27.26
-5.50
14.66
31.68
44.88
54.24
60.15
63.10
63.53
61.91
58.71
54.50
49.95
45.67
42.16
39.71
38.42
38.30
39.24
41.12
43.68
46.54
49.18
51.06
51.76
51.08
49.06
45.91
41.90
37.32
32.38
27.25
22.11
17.06
12.20
7.53
3.05
-1.26
-5.44
-9.53
-13.64
-17.87
-22.27
-26.71
-30.94
-34.65
-37.68
-40.14
-42.50
-45.44
-49.60
-55.28
-62.24
-69.70
-76.30
-80.47
-80.69
-75.91
-65.90
-51.32
-33.66
-14.79
3.43
19.61
32.97
43.26
50.55
55.00
56.81
56.18
53.48
49.30
44.35
39.35
34.89
31.41
29.15
28.25
28.74
30.55
33.43
36.95
40.53
43.52
45.38
45.76
44.55
41.90
38.16
33.77
29.22
24.90
21.00
17.49
14.16
10.75
7.07
3.09
-0.99
-4.86
-8.21
-10.95
-13.20
-15.27
-17.55
-20.28
-23.50
-27.09
-30.81
-34.44
-37.91
-41.24
-44.59
-48.18
-52.28
-57.13
-62.81
-68.98
-74.77
-78.77
-79.41
-75.42
-66.34
-52.72
-36.08
-18.41
-1.64
12.84
24.31
32.65
38.06
40.80
41.15
39.42
36.12
31.92
27.65
24.06
21.60
20.38
20.23
20.87
22.06
23.67
25.66
27.88
30.15
32.17
33.64
34.31
34.02
32.70
30.40
27.28
23.62
19.75
15.94
12.34
8.91
5.55
2.23
-0.96
-3.88
-6.45
-8.73
-10.91
-13.20
-15.72
-18.36
-20.96
-23.35
-25.53
-27.70
-30.16
-33.22
-37.08
-41.78
-47.26
-53.36
-59.85
-66.36
-72.39
-77.22
-80.02
-79.98
-76.55
-69.52
-59.16
-46.02
-30.90
-14.71
1.50
16.60
29.46
39.17
45.35
48.20
48.43
46.90
44.33
41.07
37.28
33.10
28.92
25.38
23.18
22.77
24.10
26.71
29.84
32.69
34.71
35.61
35.39
34.18
32.15
29.46
26.31
22.86
19.29
15.64
11.87
7.84
3.45
-1.20
-5.78
-9.77
-12.69
-14.32
-14.84
-14.84
-15.04
-16.07
-18.22
-21.35
-25.02
-28.69
-31.89
-34.50
-36.65
-38.75
-41.23
-44.42
-48.46
-53.20
-58.20
-62.78
-65.99
-66.81
-64.33
-58.02
-47.94
-34.79
-19.82
-4.51
9.74
21.89
31.36
38.02
42.02
43.67
43.36
41.49
38.45
34.66
30.55
26.51
22.93
20.14
18.43
17.97
18.80
20.72
23.35
26.20
28.76
30.65
31.65
31.67
30.76
29.01
26.57
23.61
20.37
17.00
13.62
10.24
6.80
3.24
-0.44
-4.15
-7.75
-11.08
-14.05
-16.68
-19.08
-21.47
-24.08
-27.08
-30.46
-34.02
-37.45
-40.47
-42.93
-44.91
-46.75
-48.92
-51.88
-55.83
-60.56
-65.30
-68.89
-69.98
-67.43
-60.71
-50.01
-36.30
-21.03
-5.77
8.12
19.69
28.53
34.62
38.22
39.70
39.47
37.86
35.22
31.85
28.11
24.39
21.10
18.60
17.16
16.86
17.61
19.23
21.48
24.08
26.76
29.19
31.02
31.96
31.82
30.57
28.41
25.60
22.39
18.90
15.14
11.11
6.89
2.68
-1.22
-4.58
-7.32
-9.60
-11.74
-14.12
-16.97
-20.26
-23.72
-26.97
-29.70
-31.86
-33.64
-35.46
-37.80
-41.02
-45.26
-50.35
-55.79
-60.75
-64.13
-64.71
-61.47
-53.92
-42.36
-27.91
-12.23
2.89
16.00
26.25
33.48
38.00
40.32
40.89
40.00
37.83
34.57
30.55
26.23
22.18
18.91
16.83
16.08
16.62
18.21
20.49
23.08
25.58
27.68
29.20
30.07
30.34
30.03
29.06
27.30
24.58
20.88
16.33
11.25
6.04
1.08
-3.40
-7.31
-10.71
-13.75
-16.58
-19.33
-22.04
-24.65
-27.04
-29.14
-31.04
-33.07
-35.69
-39.32
-44.09
-49.65
-55.14
-59.36
-61.05
-59.28
-53.63
-44.38
-32.33
-18.65
-4.56
8.81
20.53
29.97
36.78
40.91
42.61
42.36
40.70
38.11
34.83
31.04
26.89
22.70
18.99
16.24
14.83
14.83
16.07
18.19
20.80
23.51
25.94
27.71
28.48
28.06
26.44
23.84
20.58
16.97
13.22
9.41
5.52
1.45
-2.86
-7.47
-12.36
-17.38
-22.35
-26.99
-31.09
-34.56
-37.53
-40.33
-43.47
-47.38
-52.24
-57.72
-62.95
-66.71
-67.72
-65.04
-58.33
-47.94
-34.73
-19.86
-4.58
9.97
22.76
33.06
40.44
44.85
46.57
46.12
44.10
41.00
37.22
33.02
28.65
24.42
20.68
17.83
16.19
15.96
17.13
19.48
22.54
25.71
28.38
30.00
30.26
29.05
26.51
22.98
18.84
14.48
10.14
5.90
1.67
-2.72
-7.41
-12.36
-17.34
-22.08
-26.37
-30.30
-34.26
-38.73
-44.10
-50.32
-56.90
-62.88
-67.12
-68.46
-66.03
-59.42
-48.83
-35.08
-19.47
-3.57
11.18
23.67
33.37
40.20
44.39
46.31
46.29
44.64
41.61
37.49
32.63
27.43
22.37
17.93
14.60
12.74
12.56
13.99
16.63
19.85
22.89
25.13
26.21
26.15
25.12
23.35
20.93
17.81
13.89
9.18
3.86
-1.72
-7.20
-12.38
-17.24
-21.96
-26.81
-32.07
-37.93
-44.49
-51.58
-58.76
-65.15
-69.59
-70.79
-67.76
-60.09
-48.20
-33.18
-16.64
-0.18
14.82
27.43
37.18
43.90
47.66
48.71
47.47
44.45
40.22
35.35
30.41
25.87
22.18
19.66
18.44
18.44
19.40
20.93
22.73
24.56
26.24
27.60
28.36
28.21
26.91
24.44
20.96
16.80
12.24
7.41
2.33
-2.99
-8.42
-13.70
-18.54
-22.82
-26.73
-30.76
-35.56
-41.58
-48.95
-57.16
-65.15
-71.41
-74.35
-72.68
-65.84
-54.19
-38.93
-21.86
-4.84
10.60
23.52
33.63
41.11
46.30
49.47
50.73
49.99
47.30
42.90
37.35
31.49
26.14
21.95
19.20
17.91
17.96
19.22
21.58
24.72
28.14
31.08
32.77
32.69
30.75
27.36
23.17
18.83
14.69
10.77
6.80
2.50
-2.34
-7.64
-13.20
-18.69
-23.84
-28.56
-32.93
-37.17
-41.59
-46.45
-51.86
-57.58
-62.93
-66.76
-67.68
-64.43
-56.38
-43.80
-27.86
-10.40
6.61
21.51
33.28
41.57
46.59
48.88
49.04
47.60
44.93
41.25
36.73
31.67
26.60
22.19
19.15
17.94
18.65
20.94
24.22
27.90
31.48
34.55
36.75
37.71
37.07
34.62
30.51
25.27
19.66
14.41
9.96
6.31
3.05
-0.41
-4.55
-9.51
-15.08
-20.75
-25.98
-30.43
-34.03
-36.97
-39.64
-42.49
-46.00
-50.60
-56.56
-63.69
-71.18
-77.54
-80.85
-79.34
-72.01
-59.09
-42.01
-22.93
-4.14
12.56
26.11
36.20
43.03
46.97
48.47
47.91
45.71
42.31
38.20
33.92
29.98
26.83
24.84
24.22
25.04
27.20
30.41
34.26
38.19
41.55
43.72
44.27
43.06
40.32
36.54
32.32
28.14
24.24
20.56
16.85
12.80
8.21
3.05
-2.56
-8.39
-14.21
-19.74
-24.74
-29.02
-32.49
-35.21
-37.41
-39.47
-41.93
-45.37
-50.25
-56.62
-63.93
-70.92
-75.80
-76.72
-72.41
-62.60
-48.21
-31.03
-13.14
3.64
18.18
30.00
39.07
45.51
49.47
51.18
50.90
49.08
46.20
42.75
39.09
35.53
32.38
29.94
28.50
28.26
29.23
31.25
33.99
37.03
39.93
42.22
43.43
43.21
41.38
38.06
33.60
28.45
23.03
17.58
12.27
7.22
2.61
-1.43
-4.93
-8.14
-11.49
-15.36
-19.86
-24.70
-29.32
-33.16
-35.95
-37.84
-39.40
-41.37
-44.44
-48.96
-54.84
-61.51
-67.88
-72.54
-73.95
-70.86
-62.74
-49.95
-33.75
-15.94
1.59
17.29
30.16
39.72
45.92
48.95
49.23
47.26
43.68
39.11
34.13
29.18
24.70
21.09
18.77
18.02
18.91
21.13
24.17
27.41
30.33
32.59
34.01
34.47
33.88
32.16
29.34
25.62
21.38
17.06
12.98
9.26
5.71
1.99
-2.24
-7.14
-12.52
-18.02
-23.19
-27.82
-31.97
-35.96
-40.14
-44.65
-49.48
-54.49
-59.57
-64.67
-69.62
-73.85
-76.31
-75.69
-70.85
-61.35
-47.71
-31.23
-13.67
3.28
18.35
30.67
39.82
45.61
48.16
47.84
45.22
40.98
35.80
30.28
25.01
20.54
17.42
16.03
16.43
18.34
21.24
24.57
27.88
30.86
33.33
34.99
35.44
34.30
31.42
27.03
21.72
16.26
11.33
7.20
3.69
0.27
-3.69
-8.56
-14.31
-20.49
-26.48
-31.75
-36.07
-39.60
-42.77
-46.07
-49.90
-54.53
-60.09
-66.52
-73.54
-80.44
-86.05
-88.90
-87.52
-80.99
-69.27
-53.24
-34.57
-15.23
2.91
18.45
30.55
38.88
43.53
44.90
43.63
40.53
36.45
32.16
28.23
25.07
22.92
21.88
22.04
23.37
25.76
29.01
32.74
36.60
40.19
43.23
45.51
46.87
47.18
46.30
44.12
40.65
36.01
30.53
24.64
18.79
13.33
8.45
4.11
0.09
-3.94
-8.27
-13.07
-18.28
-23.61
-28.66
-33.09
-36.77
-39.88
-42.82
-46.16
-50.38
-55.79
-62.27
-69.26
-75.64
-79.91
-80.48
-76.10
-66.32
-51.72
-33.83
-14.67
3.74
19.89
32.97
42.74
49.42
53.37
55.01
54.73
52.95
50.06
46.49
42.64
38.88
35.56
33.00
31.46
31.15
32.10
34.19
37.10
40.37
43.45
45.72
46.70
46.11
43.97
40.62
36.53
32.12
27.64
23.09
18.41
13.55
8.59
3.68
-1.10
-5.84
-10.72
-15.83
-21.04
-26.03
-30.42
-34.06
-37.08
-39.86
-42.85
-46.34
-50.53
-55.48
-61.16
-67.29
-73.17
-77.54
-78.78
-75.44
-66.84
-53.43
-36.70
-18.71
-1.42
13.77
26.20
35.74
42.52
46.71
48.45
47.94
45.51
41.64
36.93
32.02
27.47
23.78
21.30
20.23
20.53
22.02
24.40
27.31
30.38
33.24
35.53
36.87
36.93
35.52
32.65
28.57
23.71
18.51
13.40
8.60
4.16
-0.09
-4.43
-9.15
-14.40
-20.07
-25.77
-30.96
-35.21
-38.40
-40.88
-43.30
-46.43
-50.86
-56.76
-63.74
-70.86
-76.78
-79.98
-79.08
-73.29
-62.60
-47.89
-30.69
-12.78
4.23
19.20
31.51
40.94
47.53
51.46
52.98
52.46
50.30
46.95
42.87
38.53
34.43
31.11
29.09
28.72
30.06
32.84
36.51
40.41
43.88
46.40
47.63
47.39
45.69
42.67
38.61
33.88
28.82
23.69
18.61
13.59
8.61
3.71
-1.06
-5.63
-10.06
-14.46
-18.99
-23.73
-28.58
-33.35
-37.75
-41.63
-44.93
-47.81
-50.57
-53.64
-57.50
-62.58
-69.06
-76.60
-84.19
-90.20
-92.74
-90.21
-81.89
-68.18
-50.59
-31.26
-12.42
4.18
17.56
27.46
34.22
38.38
40.47
40.86
39.74
37.25
33.59
29.12
24.45
20.42
18.02
18.27
21.90
29.08
39.14
50.55
61.22
69.14
72.94
72.36
68.18
61.83
54.76
47.95
41.67
35.71
29.69
23.40
16.93
10.61
4.79
-0.33
-4.81
-8.84
-12.68
-16.47
-20.20
-23.76
-26.99
-29.90
-32.68
-35.67
-39.27
-43.76
-49.28
-55.76
-62.91
-70.33
-77.31
-82.84
-85.57
-84.04
-77.15
-64.67
-47.52
-27.74
-7.81
9.97
24.19
34.53
41.46
45.75
47.99
48.43
47.05
43.90
39.34
34.13
29.23
25.56
23.68
23.69
25.25
27.72
30.46
33.00
35.12
36.77
37.93
38.48
38.18
36.76
34.13
30.44
26.10
21.56
17.18
13.06
9.14
5.28
1.39
-2.55
-6.49
-10.42
-14.35
-18.30
-22.25
-26.11
-29.73
-33.04
-36.01
-38.73
-41.41
-44.33
-47.81
-52.22
-57.77
-64.35
-71.29
-77.30
-80.71
-79.93
-73.92
-62.61
-46.98
-28.79
-10.14
7.08
21.57
32.75
40.65
45.71
48.45
49.27
48.41
46.02
42.31
37.70
32.80
28.38
25.14
23.53
23.69
25.40
28.26
31.72
35.23
38.28
40.45
41.51
41.36
40.11
37.95
35.04
31.49
27.31
22.48
17.12
11.42
5.69
0.21
-4.91
-9.69
-14.30
-18.83
-23.28
-27.47
-31.20
-34.38
-37.14
-39.81
-42.78
-46.45
-51.03
-56.48
-62.52
-68.56
-73.70
-76.88
-76.95
-73.05
-64.74
-52.31
-36.71
-19.42
-2.10
13.72
26.97
37.04
43.81
47.46
48.30
46.76
43.33
38.62
33.37
28.31
24.07
21.04
19.37
19.00
19.74
21.39
23.71
26.41
29.15
31.51
33.09
33.57
32.73
30.53
27.08
22.60
17.49
12.15
6.97
2.14
-2.38
-6.89
-11.80
-17.45
-23.84
-30.57
-36.90
-41.96
-45.15
-46.46
-46.59
-46.72
-48.13
-51.60
-56.98
-63.11
-68.07
-69.83
-66.91
-58.84
-46.24
-30.52
-13.42
3.45
18.88
32.10
42.66
50.31
54.99
56.80
56.03
53.17
48.83
43.69
38.40
33.57
29.65
26.90
25.42
25.15
25.98
27.76
30.29
33.26
36.25
38.69
40.02
39.81
37.91
34.44
29.75
24.33
18.64
13.11
8.01
3.46
-0.70
-4.78
-9.18
-14.19
-19.80
-25.71
-31.39
-36.33
-40.22
-43.19
-45.65
-48.29
-51.77
-56.58
-62.84
-70.16
-77.64
-83.92
-87.39
-86.61
-80.63
-69.32
-53.51
-34.77
-15.12
3.52
19.66
32.49
41.90
48.19
51.88
53.46
53.31
51.70
48.88
45.15
40.99
36.94
33.59
31.35
30.46
30.88
32.43
34.77
37.51
40.25
42.53
43.90
44.02
42.69
40.05
36.40
32.19
27.75
23.26
18.78
14.27
9.73
5.19
0.61
-4.09
-9.06
-14.36
-19.90
-25.37
-30.39
-34.62
-38.04
-40.88
-43.66
-46.97
-51.31
-56.99
-63.88
-71.37
-78.33
-83.27
-84.58
-81.04
-72.16
-58.40
-41.15
-22.32
-3.92
12.45
25.84
35.97
43.01
47.35
49.37
49.39
47.70
44.58
40.48
35.92
31.50
27.78
25.14
23.87
23.98
25.37
27.75
30.68
33.67
36.22
37.96
38.66
38.22
36.65
34.06
30.58
26.40
21.75
16.90
12.08
7.41
2.89
-1.62
-6.31
-11.29
-16.55
-21.83
-26.81
-31.15
-34.64
-37.31
-39.43
-41.50
-44.10
-47.73
-52.67
-58.79
-65.47
-71.61
-75.78
-76.53
-72.79
-64.20
-51.28
-35.29
-17.99
-1.15
13.79
25.98
35.12
41.33
44.98
46.36
45.78
43.48
39.79
35.20
30.31
25.80
22.22
19.91
18.90
18.99
19.92
21.46
23.47
25.82
28.29
30.49
31.86
31.84
30.14
26.77
22.17
17.03
11.96
7.33
3.10
-1.07
-5.57
-10.64
-16.19
-21.90
-27.34
-32.21
-36.42
-40.10
-43.50
-46.91
-50.66
-55.11
-60.52
-66.87
-73.56
-79.34
-82.50
-81.42
-75.06
-63.44
-47.61
-29.32
-10.49
7.26
22.85
35.71
45.56
52.30
55.92
56.58
54.62
50.67
45.56
40.19
35.35
31.61
29.21
28.14
28.20
29.16
30.85
33.08
35.65
38.22
40.38
41.70
41.83
40.68
38.28
34.83
30.59
25.78
20.59
15.22
9.85
4.65
-0.34
-5.14
-9.94
-14.91
-20.16
-25.63
-31.07
-36.11
-40.39
-43.75
-46.32
-48.63
-51.42
-55.46
-61.18
-68.48
-76.52
-83.81
-88.50
-88.85
-83.73
-72.95
-57.38
-38.65
-18.81
0.26
17.15
31.05
41.71
49.20
53.78
55.80
55.65
53.76
50.57
46.54
42.12
37.84
34.15
31.51
30.14
30.06
31.08
32.85
35.03
37.29
39.36
40.92
41.63
41.16
39.34
36.24
32.17
27.54
22.74
18.04
13.51
9.09
4.65
0.12
-4.54
-9.32
-14.20
-19.13
-24.06
-28.87
-33.42
-37.56
-41.19
-44.44
-47.59
-51.13
-55.56
-61.23
-68.08
-75.49
-82.29
-86.93
-87.85
-83.89
-74.65
-60.65
-43.23
-24.16
-5.26
12.00
26.62
38.13
46.45
51.74
54.34
54.64
53.09
50.20
46.45
42.29
38.12
34.31
31.23
29.21
28.52
29.15
30.87
33.19
35.54
37.45
38.61
38.88
38.20
36.54
33.86
30.18
25.61
20.46
15.07
9.76
4.72
-0.07
-4.76
-9.60
-14.79
-20.42
-26.34
-32.21
-37.54
-41.88
-45.07
-47.34
-49.30
-51.74
-55.33
-60.37
-66.63
-73.30
-79.14
-82.72
-82.70
-78.16
-68.82
-55.18
-38.42
-20.16
-2.09
14.45
28.55
39.83
48.25
53.91
57.00
57.70
56.34
53.39
49.49
45.36
41.63
38.75
36.91
36.08
36.15
36.95
38.28
39.96
41.70
43.19
44.06
43.94
42.54
39.72
35.53
30.22
24.25
18.15
12.37
7.16
2.44
-2.06
-6.67
-11.62
-16.90
-22.27
-27.41
-32.01
-35.92
-39.20
-42.12
-45.12
-48.72
-53.40
-59.37
-66.32
-73.32
-78.85
-81.18
-78.88
-71.25
-58.65
-42.31
-23.98
-5.45
11.85
26.93
39.27
48.55
54.65
57.58
57.58
55.17
51.06
46.03
40.80
35.90
31.68
28.34
26.04
24.93
25.14
26.63
29.14
32.15
34.97
36.93
37.58
36.75
34.56
31.29
27.28
22.85
18.26
13.68
9.16
4.62
-0.10
-5.22
-10.79
-16.66
-22.47
-27.76
-32.15
-35.50
-38.00
-40.11
-42.45
-45.61
-50.03
-55.72
-62.20
-68.35
-72.61
-73.30
-69.11
-59.59
-45.35
-27.90
-9.24
8.74
24.57
37.42
46.93
53.06
55.94
55.90
53.39
49.06
43.57
37.54
31.47
25.78
20.85
17.07
14.80
14.23
15.33
17.80
21.14
24.71
27.90
30.14
31.05
30.42
28.28
24.92
20.81
16.50
12.40
8.62
4.90
0.83
-3.95
-9.54
-15.61
-21.55
-26.71
-30.67
-33.43
-35.39
-37.26
-39.80
-43.59
-48.79
-54.95
-61.05
-65.66
-67.24
-64.65
-57.44
-45.99
-31.43
-15.22
1.05
16.00
28.62
38.30
44.83
48.32
49.08
47.55
44.16
39.36
33.64
27.53
21.71
16.86
13.63
12.38
13.19
15.77
19.55
23.90
28.13
31.66
34.05
35.01
34.50
32.66
29.78
26.16
22.02
17.43
12.30
6.53
0.15
-6.60
-13.29
-19.49
-24.93
-29.58
-33.67
-37.56
-41.64
-46.24
-51.49
-57.20
-62.79
-67.24
-69.28
-67.71
-61.81
-51.59
-37.87
-22.06
-5.73
9.63
22.98
33.65
41.37
46.12
48.06
47.50
44.89
40.80
35.93
30.91
26.34
22.59
19.87
18.25
17.71
18.19
19.53
21.49
23.66
25.59
26.82
27.06
26.14
24.11
21.13
17.46
13.43
9.34
5.41
1.64
-2.17
-6.31
-10.94
-15.99
-21.14
-25.95
-30.14
-33.70
-36.91
-40.27
-44.26
-49.17
-55.00
-61.33
-67.33
-71.83
-73.49
-71.18
-64.28
-52.96
-38.21
-21.58
-4.88
10.30
22.77
31.99
37.93
41.00
41.76
40.76
38.40
35.02
30.97
26.69
22.72
19.56
17.49
16.58
16.65
17.44
18.72
20.28
21.94
23.48
24.61
25.00
24.39
22.57
19.52
15.34
10.36
5.04
-0.11
-4.70
-8.63
-12.05
-15.28
-18.61
-22.16
-25.84
-29.44
-32.86
-36.18
-39.71
-43.81
-48.82
-54.77
-61.23
-67.23
-71.34
-72.02
-68.08
-59.20
-46.01
-30.04
-13.23
2.70
16.51
27.70
36.22
42.28
46.10
47.80
47.54
45.53
42.15
37.93
33.46
29.30
25.84
23.32
21.85
21.46
22.17
23.93
26.54
29.55
32.28
33.98
34.04
32.24
28.76
24.07
18.80
13.46
8.33
3.49
-1.19
-5.86
-10.67
-15.61
-20.50
-25.06
-29.00
-32.16
-34.63
-36.80
-39.27
-42.70
-47.49
-53.65
-60.54
-66.95
-71.26
-71.91
-67.78
-58.65
-45.28
-29.25
-12.44
3.41
17.12
28.16
36.46
42.20
45.59
46.80
46.02
43.56
39.92
35.65
31.32
27.39
24.23
22.08
21.08
21.26
22.52
24.61
27.19
29.85
32.19
33.81
34.35
33.57
31.33
27.76
23.22
18.20
13.20
8.50
4.14
-0.09
-4.49
-9.22
-14.29
-19.46
-24.36
-28.65
-32.15
-34.89
-37.18
-39.52
-42.49
-46.55
-51.80
-57.85
-63.79
-68.34
-70.11
-68.00
-61.49
-50.81
-36.97
-21.43
-5.81
8.50
20.57
29.95
36.64
40.87
42.97
43.22
41.89
39.27
35.73
31.81
28.12
25.24
23.58
23.28
24.17
25.90
28.02
30.21
32.18
33.73
34.63
34.66
33.61
31.36
27.97
23.70
18.97
14.24
9.89
6.07
2.67
-0.63
-4.22
-8.36
-13.01
-17.91
-22.67
-26.97
-30.62
-33.65
-36.22
-38.56
-40.98
-43.87
-47.64
-52.50
-58.21
-63.91
-68.23
-69.61
-66.84
-59.45
-47.87
-33.30
-17.35
-1.64
12.53
24.30
33.29
39.44
42.87
43.80
42.49
39.33
34.88
29.87
25.10
21.28
18.88
18.02
18.54
20.12
22.38
24.98
27.71
30.36
32.72
34.50
35.32
34.85
32.87
29.42
24.83
19.66
14.48
9.71
5.46
1.49
-2.57
-7.02
-11.90
-16.90
-21.57
-25.47
-28.40
-30.46
-32.01
-33.61
-35.82
-39.13
-43.79
-49.65
-56.03
-61.73
-65.18
-64.89
-59.87
-50.08
-36.49
-20.81
-4.98
9.34
21.17
30.24
36.80
41.24
43.81
44.58
43.55
40.89
37.02
32.64
28.53
25.32
23.32
22.53
22.75
23.74
25.31
27.27
29.42
31.42
32.82
33.21
32.32
30.12
26.89
23.06
19.11
15.37
12.01
8.97
6.07
3.03
-0.42
-4.43
-9.00
-13.92
-18.79
-23.21
-26.89
-29.82
-32.25
-34.65
-37.58
-41.52
-46.63
-52.60
-58.55
-63.15
-64.92
-62.69
-56.01
-45.30
-31.76
-16.91
-2.18
11.35
23.00
32.39
39.21
43.31
44.68
43.60
40.60
36.38
31.58
26.74
22.20
18.25
15.13
13.08
12.28
12.78
14.46
17.05
20.12
23.14
25.54
26.81
26.68
25.14
22.44
19.01
15.26
11.52
7.93
4.49
1.12
-2.27
-5.75
-9.34
-13.00
-16.62
-20.11
-23.39
-26.56
-29.86
-33.56
-37.88
-42.74
-47.70
-51.98
-54.55
-54.42
-50.87
-43.72
-33.38
-20.80
-7.23
6.09
18.10
28.11
35.66
40.53
42.70
42.33
39.81
35.70
30.64
25.23
19.98
15.29
11.55
9.09
8.08
8.52
10.15
12.53
15.16
17.59
19.52
20.73
21.07
20.46
18.92
16.60
13.77
10.71
7.58
4.40
1.05
-2.60
-6.54
-10.61
-14.53
-18.04
-21.04
-23.59
-25.95
-28.52
-31.66
-35.65
-40.44
-45.57
-50.14
-52.95
-52.82
-48.95
-41.25
-30.40
-17.66
-4.53
7.65
17.97
25.97
31.59
34.91
36.14
35.47
33.14
29.49
24.95
19.99
15.09
10.69
7.21
4.95
4.11
4.74
6.67
9.55
12.84
15.96
18.40
19.88
20.38
20.00
18.96
17.35
15.17
12.30
8.63
4.20
-0.77
-5.86
-10.64
-14.81
-18.29
-21.28
-24.12
-27.24
-31.01
-35.64
-41.07
-46.83
-52.04
-55.48
-55.92
-52.44
-44.89
-33.92
-20.88
-7.40
5.06
15.47
23.39
28.87
32.20
33.75
33.83
32.66
30.37
27.11
23.09
18.63
14.10
9.89
6.39
3.90
2.66
2.77
4.14
6.48
9.29
12.00
14.06
15.15
15.18
14.28
12.65
10.46
7.76
4.55
0.84
-3.25
-7.46
-11.47
-15.11
-18.40
-21.61
-25.18
-29.51
-34.76
-40.74
-46.91
-52.42
-56.25
-57.46
-55.31
-49.49
-40.22
-28.22
-14.67
-0.89
11.91
22.80
31.20
36.84
39.69
39.90
37.83
34.02
29.11
23.75
18.49
13.74
9.86
7.12
5.74
5.80
7.13
9.28
11.63
13.53
14.61
14.79
14.24
13.18
11.71
9.74
7.11
3.76
-0.14
-4.23
-8.09
-11.45
-14.33
-17.05
-20.07
-23.81
-28.44
-33.88
-39.69
-45.23
-49.66
-52.14
-51.87
-48.35
-41.47
-31.57
-19.52
-6.46
6.33
17.70
26.88
33.49
37.60
39.46
39.43
37.75
34.62
30.25
25.02
19.53
14.54
10.74
8.53
7.93
8.56
9.90
11.42
12.82
14.02
15.00
15.73
16.05
15.67
14.34
11.95
8.63
4.71
0.53
-3.63
-7.67
-11.64
-15.70
-19.98
-24.55
-29.49
-34.81
-40.48
-46.23
-51.45
-55.18
-56.27
-53.76
-47.21
-37.01
-24.24
-10.44
2.93
14.74
24.42
31.79
36.89
39.76
40.38
38.78
35.18
30.10
24.35
18.88
14.52
11.78
10.72
11.02
12.14
13.55
14.95
16.23
17.41
18.42
19.01
18.85
17.62
15.21
11.85
7.97
4.09
0.52
-2.67
-5.69
-8.88
-12.55
-16.88
-21.90
-27.53
-33.54
-39.53
-44.88
-48.68
-49.91
-47.67
-41.52
-31.77
-19.50
-6.27
6.38
17.35
26.14
32.84
37.68
40.79
42.07
41.22
38.17
33.19
27.04
20.69
15.10
10.92
8.41
7.53
8.07
9.74
12.21
15.14
18.13
20.72
22.49
23.11
22.44
20.51
17.56
13.92
9.98
6.07
2.38
-1.05
-4.36
-7.75
-11.45
-15.66
-20.51
-25.94
-31.63
-36.91
-40.78
-42.16
-40.13
-34.39
-25.30
-13.90
-1.57
10.37
20.93
29.54
35.97
40.21
42.29
42.29
40.40
36.92
32.32
27.20
22.18
17.85
14.64
12.76
12.16
12.53
13.45
14.50
15.39
15.97
16.19
16.02
15.34
14.00
11.87
8.89
5.19
1.00
-3.36
-7.57
-11.45
-15.00
-18.39
-21.91
-25.88
-30.48
-35.69
-41.20
-46.43
-50.60
-52.85
-52.37
-48.63
-41.55
-31.60
-19.73
-7.19
4.77
15.14
23.32
28.98
32.10
32.81
31.41
28.34
24.17
19.52
14.95
10.91
7.67
5.39
4.10
3.82
4.46
5.86
7.76
9.80
11.58
12.68
12.72
11.46
8.82
4.98
0.29
-4.74
-9.58
-13.85
-17.38
-20.30
-22.98
-25.89
-29.45
-33.77
-38.55
-43.04
-46.22
-47.07
-44.85
-39.38
-31.04
-20.63
-9.18
2.31
12.96
22.08
29.21
34.09
36.68
37.19
35.98
33.46
30.02
26.00
21.70
17.56
14.06
11.68
10.74
11.20
12.74
14.86
17.06
18.93
20.22
20.74
20.30
18.76
16.06
12.30
7.71
2.66
-2.53
-7.61
-12.44
-17.01
-21.36
-25.61
-29.98
-34.67
-39.85
-45.49
-51.23
-56.33
-59.76
-60.47
-57.75
-51.50
-42.35
-31.52
-20.41
-10.21
-1.64
5.02
9.81
12.78
13.98
13.55
11.94
9.98
8.72
9.05
11.28
15.05
19.49
23.58
26.57
28.18
28.55
28.00
26.89
25.44
23.82
22.11
20.31
18.34
16.02
13.17
9.68
5.65
1.36
-2.83
-6.63
-9.94
-12.92
-15.93
-19.44
-23.78
-29.05
-34.85
-40.31
-44.20
-45.27
-42.63
-36.07
-26.14
-14.06
-1.34
10.52
20.38
27.60
32.06
34.06
34.11
32.76
30.46
27.54
24.32
21.16
18.54
16.94
16.66
17.76
19.92
22.71
25.66
28.43
30.74
32.27
32.66
31.56
28.81
24.63
19.61
14.59
10.34
7.28
5.32
3.98
2.57
0.49
-2.50
-6.25
-10.29
-14.08
-17.26
-19.84
-22.20
-24.92
-28.54
-33.25
-38.74
-44.12
-48.14
-49.47
-47.06
-40.52
-30.26
-17.41
-3.57
9.60
20.77
29.14
34.50
37.09
37.37
35.88
33.11
29.47
25.32
21.05
17.05
13.79
11.64
10.77
11.15
12.46
14.27
16.16
17.80
19.00
19.64
19.58
18.68
16.80
13.96
10.39
6.53
2.82
-0.44
-3.30
-6.07
-9.14
-12.79
-16.97
-21.36
-25.49
-29.00
-31.79
-34.11
-36.43
-39.24
-42.89
-47.36
-52.26
-56.73
-59.65
-59.88
-56.62
-49.65
-39.47
-27.18
-14.20
-1.87
8.79
17.25
23.39
27.38
29.45
29.86
28.79
26.50
23.28
19.58
15.93
12.84
10.74
9.84
10.21
11.67
13.94
16.62
19.26
21.41
22.67
22.81
21.73
19.47
16.15
11.99
7.31
2.44
-2.23
-6.46
-10.15
-13.43
-16.61
-20.03
-23.99
-28.60
-33.80
-39.33
-44.77
-49.46
-52.55
-53.19
-50.65
-44.65
-35.49
-24.04
-11.56
0.64
11.45
20.19
26.63
30.86
33.15
33.76
32.95
30.93
27.99
24.51
20.98
17.91
15.71
14.60
14.56
15.40
16.81
18.48
20.08
21.33
21.95
21.77
20.71
18.83
16.31
13.32
10.01
6.44
2.65
-1.31
-5.32
-9.27
-13.02
-16.50
-19.78
-22.94
-26.18
-29.68
-33.58
-37.89
-42.38
-46.52
-49.53
-50.51
-48.63
-43.51
-35.31
-24.73
-12.94
-1.19
9.40
18.06
24.44
28.57
30.71
31.20
30.42
28.68
26.26
23.45
20.56
17.94
15.95
14.85
14.80
15.75
17.46
19.54
21.59
23.27
24.32
24.58
23.99
22.52
20.21
17.18
13.62
9.82
6.05
2.49
-0.79
-3.86
-6.85
-9.91
-13.13
-16.49
-19.92
-23.31
-26.65
-30.03
-33.70
-37.87
-42.51
-47.14
-50.85
-52.45
-50.94
-45.79
-37.23
-26.13
-13.71
-1.24
10.24
19.95
27.37
32.17
34.31
34.00
31.76
28.29
24.34
20.57
17.40
15.13
13.87
13.64
14.39
15.98
18.13
20.48
22.60
24.10
24.75
24.53
23.62
22.24
20.66
18.95
17.05
14.79
11.99
8.59
4.60
0.16
-4.54
-9.31
-13.90
-18.08
-21.63
-24.46
-26.73
-28.88
-31.51
-35.12
-39.83
-45.09
-49.79
-52.52
-52.08
-47.89
-40.19
-29.91
-18.32
-6.67
4.11
13.44
20.99
26.60
30.14
31.64
31.26
29.36
26.46
23.06
19.63
16.50
13.93
12.16
11.40
11.79
13.30
15.67
18.40
20.95
22.80
23.69
23.58
22.61
20.96
18.79
16.13
13.01
9.48
5.67
1.76
-2.07
-5.70
-9.06
-12.13
-14.91
-17.41
-19.72
-22.02
-24.57
-27.71
-31.67
-36.44
-41.62
-46.41
-49.67
-50.32
-47.57
-41.27
-31.97
-20.81
-9.14
1.82
11.21
18.65
24.07
27.61
29.42
29.71
28.69
26.66
23.93
20.81
17.61
14.61
12.16
10.63
10.34
11.45
13.79
16.88
20.07
22.66
24.16
24.40
23.48
21.71
19.41
16.82
14.02
10.94
7.48
3.59
-0.64
-5.02
-9.29
-13.25
-16.82
-19.97
-22.80
-25.42
-28.02
-30.85
-34.18
-38.13
-42.46
-46.45
-48.98
-48.86
-45.27
-38.13
-28.16
-16.60
-4.79
6.19
15.62
23.16
28.69
32.17
33.69
33.41
31.63
28.76
25.24
21.50
17.96
15.00
12.97
12.07
12.30
13.44
15.10
16.88
18.43
19.49
19.91
19.59
18.53
16.81
14.54
11.89
8.97
5.81
2.39
-1.36
-5.47
-9.85
-14.37
-18.80
-22.96
-26.75
-30.26
-33.69
-37.34
-41.37
-45.61
-49.55
-52.31
-52.93
-50.68
-45.27
-36.97
-26.52
-14.98
-3.45
7.15
16.15
23.22
28.28
31.38
32.67
32.22
30.17
26.75
22.40
17.77
13.56
10.39
8.60
8.22
9.07
10.79
13.04
15.48
17.84
19.86
21.29
21.92
21.62
20.31
18.02
14.88
11.12
7.00
2.78
-1.38
-5.39
-9.21
-12.80
-16.07
-19.02
-21.73
-24.42
-27.42
-30.92
-34.75
-38.32
-40.64
-40.69
-37.78
-31.79
-23.25
-13.18
-2.74
7.02
15.30
21.62
25.73
27.61
27.39
25.38
21.97
17.58
12.63
7.50
2.66
-1.36
-4.02
-4.94
-4.03
-1.54
1.97
5.84
9.53
12.69
15.15
16.82
17.59
17.35
16.05
13.70
10.45
6.55
2.33
-1.88
-5.89
-9.60
-13.14
-16.71
-20.55
-24.83
-29.57
-34.61
-39.63
-44.09
-47.27
-48.34
-46.56
-41.47
-33.17
-22.36
-10.22
1.91
12.84
21.75
28.32
32.53
34.62
34.82
33.36
30.44
26.33
21.48
16.47
12.00
8.74
7.11
7.18
8.68
11.10
13.87
16.53
18.81
20.56
21.66
21.99
21.40
19.77
17.05
13.33
8.82
3.77
-1.50
-6.74
-11.76
-16.48
-20.96
-25.31
-29.75
-34.50
-39.70
-45.26
-50.77
-55.49
-58.42
-58.57
-55.30
-48.53
-38.87
-27.44
-15.60
-4.55
4.82
12.03
16.93
19.55
19.95
18.29
14.81
9.94
4.32
-1.23
-5.87
-8.88
-9.86
-8.70
-5.58
-0.83
5.16
11.99
19.22
26.38
32.98
38.60
42.95
45.92
47.52
47.77
46.68
44.22
40.41
35.42
29.58
23.30
16.90
10.53
4.05
-2.78
-10.25
-18.43
-27.13
-35.77
-43.45
-49.04
-51.45
-49.86
-44.00
-34.31
-21.96
-8.52
4.43
15.62
24.36
30.47
34.13
35.66
35.37
33.51
30.36
26.26
21.69
17.25
13.48
10.78
9.33
9.09
9.84
11.34
13.32
15.53
17.74
19.66
20.98
21.44
20.87
19.24
16.67
13.39
9.66
5.70
1.64
-2.40
-6.37
-10.17
-13.70
-16.94
-19.97
-23.04
-26.52
-30.65
-35.38
-40.20
-44.17
-46.14
-45.11
-40.54
-32.56
-21.99
-10.10
1.75
12.40
21.09
27.55
31.86
34.25
34.94
34.13
31.99
28.79
24.91
20.82
16.99
13.84
11.68
10.67
10.83
12.06
14.15
16.73
19.33
21.45
22.66
22.67
21.37
18.89
15.51
11.63
7.64
3.82
0.27
-3.09
-6.38
-9.69
-12.98
-16.17
-19.19
-22.13
-25.19
-28.61
-32.51
-36.78
-41.11
-44.93
-47.61
-48.45
-46.79
-42.21
-34.63
-24.54
-12.94
-1.11
9.71
18.69
25.47
30.11
32.80
33.74
33.09
31.02
27.89
24.20
20.53
17.42
15.24
14.20
14.32
15.50
17.58
20.28
23.24
26.08
28.36
29.70
29.81
28.53
25.89
22.11
17.58
12.77
8.06
3.64
-0.56
-4.73
-9.01
-13.34
-17.40
-20.80
-23.27
-24.86
-25.95
-27.16
-29.06
-31.97
-35.78
-40.03
-43.92
-46.52
-46.97
-44.60
-39.19
-31.04
-20.92
-9.92
0.83
10.37
18.07
23.65
27.08
28.50
28.21
26.54
23.91
20.76
17.53
14.63
12.41
11.15
11.00
11.94
13.82
16.38
19.29
22.19
24.70
26.43
27.06
26.38
24.43
21.54
18.17
14.87
12.00
9.62
7.54
5.32
2.58
-0.89
-5.00
-9.36
-13.45
-16.81
-19.21
-20.75
-21.82
-22.97
-24.71
-27.29
-30.59
-34.12
-37.07
-38.49
-37.50
-33.60
-26.80
-17.68
-7.29
3.20
12.69
20.47
26.23
30.02
32.07
32.64
31.92
30.03
27.13
23.43
19.31
15.23
11.69
9.11
7.72
7.52
8.34
9.88
11.81
13.84
15.71
17.14
17.89
17.73
16.62
14.67
12.12
9.20
6.05
2.67
-1.07
-5.26
-9.88
-14.74
-19.55
-23.97
-27.83
-31.16
-34.17
-37.22
-40.65
-44.67
-49.21
-53.87
-57.84
-60.13
-59.76
-56.12
-49.15
-39.48
-28.16
-16.47
-5.53
3.89
11.36
16.81
20.28
21.91
21.91
20.48
17.92
14.52
10.65
6.74
3.28
0.78
-0.37
-0.01
1.73
4.49
7.79
11.14
14.20
16.70
18.41
19.17
18.79
17.23
14.53
10.90
6.69
2.31
-1.83
-5.50
-8.68
-11.62
-14.78
-18.59
-23.26
-28.64
-34.23
-39.23
-42.83
-44.28
-43.11
-39.14
-32.50
-23.68
-13.51
-3.02
6.78
15.13
21.60
26.16
28.99
30.35
30.41
29.28
27.04
23.84
19.98
15.92
12.21
9.38
7.81
7.59
8.57
10.36
12.52
14.68
16.58
18.07
18.96
19.04
18.10
16.09
13.15
9.60
5.81
2.00
-1.80
-5.71
-9.88
-14.33
-18.92
-23.45
-27.78
-31.91
-35.93
-39.77
-43.10
-45.22
-45.30
-42.65
-37.00
-28.71
-18.69
-8.13
1.87
10.53
17.50
22.75
26.38
28.47
29.04
28.04
25.59
22.02
17.86
13.83
10.55
8.51
7.92
8.73
10.64
13.19
15.87
18.19
19.81
20.60
20.53
19.69
18.16
15.98
13.19
9.87
6.18
2.34
-1.46
-5.09
-8.59
-12.04
-15.60
-19.42
-23.62
-28.29
-33.37
-38.59
-43.39
-46.97
-48.43
-47.06
-42.59
-35.26
-25.76
-15.12
-4.40
5.48
13.84
20.31
24.86
27.67
29.06
29.33
28.71
27.27
25.08
22.30
19.23
16.33
14.10
12.90
12.83
13.71
15.21
16.97
18.68
20.15
21.24
21.82
21.72
20.77
18.85
15.95
12.18
7.82
3.18
-1.43
-5.80
-9.83
-13.47
-16.69
-19.48
-21.91
-24.22
-26.77
-29.95
-33.93
-38.41
-42.61
-45.35
-45.51
-42.37
-35.89
-26.74
-16.03
-5.07
5.00
13.39
19.73
23.98
26.32
26.98
26.18
24.11
20.99
17.16
