BVP
64.000000
-0.00
-0.00
-0.00
-0.00
-0.00
-0.00
-0.00
-0.00
-0.00
0.00
0.00
0.00
-0.00
-0.00
-0.01
-0.01
0.00
0.02
0.05
0.07
0.09
0.10
0.10
0.10
0.10
0.10
0.12
0.15
0.18
0.20
0.20
0.20
0.18
0.17
0.19
0.23
0.30
0.37
0.43
0.46
0.44
0.41
0.39
0.43
0.53
0.69
0.88
1.02
1.07
1.04
0.96
0.92
0.98
1.19
1.55
1.93
2.24
2.38
2.34
2.20
2.10
2.17
2.48
3.03
3.65
4.16
4.41
4.37
4.15
3.94
3.94
4.05
4.51
5.34
6.46
7.57
8.17
7.68
5.71
2.30
-1.94
-6.05
-9.16
-10.83
-11.21
-10.88
-10.46
-10.31
-10.40
-10.48
-10.27
-9.75
-9.06
-8.37
-7.78
-7.30
-6.98
-6.94
-7.30
-8.12
-9.28
-10.45
-11.18
-11.14
-10.21
-8.53
-6.38
-4.04
-1.75
0.36
2.18
3.64
4.72
5.47
5.97
6.32
6.55
6.68
6.70
6.61
6.48
6.34
6.19
5.95
5.52
4.89
4.16
3.56
3.31
3.40
3.68
3.84
3.64
3.10
2.45
2.02
1.93
2.01
1.90
1.30
0.28
-0.77
-1.29
-0.95
0.12
1.43
2.36
2.51
1.92
0.98
0.18
-0.17
-0.02
0.41
0.81
0.97
0.81
0.40
-0.12
-0.57
-0.75
-0.62
-0.17
0.47
1.09
1.49
1.54
1.27
0.80
0.33
0.04
-0.02
0.17
0.62
1.31
2.11
2.68
2.48
1.02
-1.78
-5.40
-8.77
-10.72
-10.55
-8.36
-5.00
-1.65
0.78
1.96
2.16
1.91
1.63
1.47
1.35
1.14
0.84
0.57
0.48
0.61
0.91
1.20
1.32
1.21
0.91
0.56
0.32
0.27
0.38
0.54
0.63
0.54
0.28
-0.07
-0.37
-0.49
-0.33
0.07
0.56
0.88
0.83
0.36
-0.30
-0.85
-0.98
-0.62
0.00
0.61
0.93
0.96
0.84
0.69
0.53
0.31
-0.01
-0.41
-0.74
-0.86
-0.73
-0.39
0.01
0.36
0.63
0.80
0.89
0.87
0.74
0.55
0.38
0.31
0.35
0.43
0.44
0.33
0.19
0.07
0.08
0.23
0.42
0.53
0.46
0.25
0.02
-0.13
-0.17
-0.25
-0.57
-1.25
-2.17
-3.05
-3.53
-3.47
-2.98
-2.37
-1.94
-1.72
-1.49
-1.01
-0.17
0.85
1.69
2.06
1.87
1.33
0.76
0.45
0.46
0.72
0.99
1.10
0.99
0.73
0.43
0.21
0.12
0.17
0.27
0.37
0.38
0.31
0.20
0.13
0.19
0.36
0.61
0.83
0.95
0.91
0.74
0.52
0.33
0.21
0.13
0.05
-0.11
-0.34
-0.53
-0.58
-0.44
-0.15
0.16
0.34
0.32
0.16
-0.01
-0.07
0.02
0.20
0.36
0.40
0.30
0.12
-0.05
-0.14
-0.12
-0.02
0.09
0.14
0.12
0.02
-0.15
-0.32
-0.46
-0.50
-0.42
-0.23
0.02
0.25
0.36
0.29
0.08
-0.18
-0.37
-0.40
-0.26
-0.04
0.15
0.24
0.21
0.14
0.03
-0.10
-0.32
-0.64
-1.01
-1.25
-1.17
-0.68
0.12
0.91
1.33
1.20
0.57
-0.23
-0.76
-0.75
-0.25
0.41
0.81
0.69
0.03
-0.94
-1.84
-2.42
-2.52
-2.28
-1.90
-1.52
-1.10
-0.59
0.06
0.73
1.21
1.28
0.94
0.38
-0.03
0.03
0.66
1.65
2.61
3.10
2.89
2.03
0.89
-0.18
-0.84
-0.97
-0.65
-0.13
0.31
0.54
0.57
0.64
0.95
1.46
1.94
2.07
1.83
1.29
0.73
0.40
0.40
0.52
0.29
-0.73
-2.62
-4.80
-6.30
-6.20
-4.21
-0.94
2.85
6.18
8.17
8.15
6.07
2.51
-1.49
-4.92
-7.10
-7.56
-6.39
-4.32
-2.29
-0.82
-0.06
0.03
-0.51
-1.55
-2.67
-3.36
-3.25
-2.30
-0.87
0.46
1.12
0.99
0.38
-0.10
-0.06
0.52
1.29
1.88
2.00
1.62
0.98
0.50
0.50
1.03
1.84
2.48
2.59
2.11
1.29
0.60
0.38
0.65
1.08
1.26
0.97
0.34
-0.31
-0.61
-0.42
0.12
0.70
1.01
0.87
0.36
-0.26
-0.75
-0.90
-0.72
-0.38
-0.04
0.14
0.13
-0.10
-0.52
-1.08
-1.63
-1.94
-1.75
-0.96
0.23
1.43
2.14
2.11
1.43
0.51
-0.14
-0.25
0.13
0.64
0.92
0.76
0.25
-0.35
-0.74
-0.82
-0.59
-0.19
0.19
0.46
0.61
0.68
0.62
0.32
-0.32
-1.20
-2.06
-2.47
-2.13
-1.05
0.39
1.62
2.20
2.02
1.33
0.55
0.00
-0.25
-0.37
-0.54
-0.80
-1.05
-1.09
-0.84
-0.37
0.13
0.55
0.73
0.69
0.44
0.06
-0.35
-0.67
-0.75
-0.53
-0.05
0.54
1.00
1.18
1.05
0.77
0.52
0.43
0.48
0.59
0.64
0.61
0.53
0.47
0.48
0.54
0.62
0.69
0.73
0.76
0.78
0.71
0.50
0.12
-0.40
-0.96
-1.47
-1.83
-2.06
-2.05
-1.82
-1.50
-1.23
-1.06
-0.96
-0.88
-0.80
-0.73
-0.69
-0.72
-0.79
-0.81
-0.70
-0.42
0.01
0.49
0.92
1.16
1.15
0.93
0.61
0.33
0.20
0.30
0.62
1.15
1.75
2.24
2.44
2.21
1.45
0.13
-1.58
-3.15
-3.90
-3.49
-2.21
-0.74
0.33
0.81
0.84
0.73
0.69
0.63
0.27
-0.57
-1.78
-2.98
-3.78
-3.96
-3.57
-2.74
-1.71
-0.75
-0.10
0.12
-0.10
-0.45
-0.62
-0.42
0.07
0.52
0.66
0.46
0.29
0.63
1.61
2.84
3.55
3.10
1.56
-0.28
-1.42
-1.24
0.12
1.90
3.24
3.69
3.37
2.73
2.15
1.80
1.57
1.26
0.82
0.30
-0.15
-0.40
-0.44
-0.34
-0.25
-0.24
-0.36
-0.52
-0.61
-0.54
-0.29
0.06
0.39
0.56
0.48
0.19
-0.19
-0.51
-0.62
-0.52
-0.25
0.06
0.27
0.31
0.19
-0.03
-0.22
-0.31
-0.26
-0.07
0.18
0.32
0.19
-0.35
-1.30
-2.51
-3.56
-3.99
-3.47
-2.01
0.02
2.00
3.34
3.68
3.07
1.78
0.21
-1.26
-2.32
-2.82
-2.70
-2.03
-1.01
0.10
1.04
1.62
1.80
1.58
1.09
0.42
-0.26
-0.80
-1.02
-0.87
-0.41
0.14
0.50
0.40
-0.16
-0.87
-1.34
-1.23
-0.47
0.58
1.41
1.58
1.05
0.27
-0.23
-0.08
0.65
1.44
1.75
1.33
0.45
-0.32
-0.53
-0.23
0.19
0.09
-0.70
-1.90
-2.82
-2.82
-1.68
0.20
1.97
2.81
2.34
0.83
-0.98
-2.19
-2.30
-1.37
0.10
1.43
2.14
2.17
1.77
1.31
1.08
1.01
0.96
0.73
0.26
-0.26
-0.54
-0.36
0.19
0.77
0.95
0.33
-1.14
-3.06
-4.71
-5.40
-4.74
-2.90
-0.45
1.78
3.10
3.18
2.12
0.34
-1.62
-3.22
-4.07
-4.02
-3.20
-1.87
-0.38
0.93
1.78
1.97
1.45
0.42
-0.74
-1.52
-1.58
-0.86
0.24
1.19
1.55
1.31
0.83
0.61
0.97
1.81
2.78
3.47
3.68
3.41
2.83
2.09
1.31
0.63
0.29
0.51
1.31
2.31
2.74
1.92
-0.32
-3.40
-6.14
-7.43
-6.78
-4.69
-2.33
-0.89
-0.92
-2.09
-3.46
-4.05
-3.43
-1.93
-0.29
0.73
0.84
0.28
-0.34
-0.47
0.15
1.32
2.49
3.17
3.08
2.34
1.39
0.68
0.49
0.85
1.55
2.33
3.06
3.68
4.18
4.50
4.49
4.09
3.38
2.62
2.14
2.09
2.44
2.92
3.24
3.18
2.70
1.92
1.02
0.24
-0.23
-0.28
0.07
0.68
1.30
1.70
1.80
1.66
1.42
1.25
1.23
1.36
1.57
1.74
1.75
1.44
0.78
-0.15
-1.06
-1.65
-1.73
-1.35
-0.82
-0.50
-0.59
-1.02
-1.47
-1.61
-1.29
-0.61
0.07
0.30
-0.19
-1.40
-2.95
-4.32
-5.04
-4.93
-4.19
-3.34
-3.02
-3.41
-4.36
-5.43
-6.08
-6.03
-5.40
-4.49
-3.53
-2.51
-1.15
0.60
2.35
3.25
2.49
-0.03
-3.57
-6.87
-8.77
-8.83
-7.57
-6.00
-5.08
-5.06
-5.40
-4.91
-2.84
0.37
3.34
4.95
5.05
4.29
3.39
3.02
3.30
3.87
4.27
4.18
3.55
2.57
1.51
0.64
0.24
0.33
0.77
1.24
1.49
1.45
1.21
0.94
0.81
0.87
1.05
1.23
1.28
1.19
1.05
0.99
1.05
1.23
1.48
1.77
2.07
2.33
2.50
2.54
2.37
2.03
1.62
1.34
1.31
1.53
1.85
2.03
1.90
1.44
0.79
0.17
-0.21
-0.26
-0.03
0.33
0.67
0.87
0.89
0.75
0.52
0.28
0.10
0.00
-0.00
0.08
0.19
0.29
0.33
0.23
-0.07
-0.54
-1.07
-1.47
-1.49
-0.95
0.13
1.54
2.91
3.89
4.28
4.08
3.53
2.88
2.34
1.94
1.61
1.27
0.91
0.60
0.39
0.35
0.43
0.54
0.59
0.51
0.28
-0.06
-0.49
-0.93
-1.28
-1.40
-1.21
-0.75
-0.18
0.22
0.22
-0.22
-0.91
-1.49
-1.60
-1.09
-0.10
0.98
1.67
1.61
0.72
-0.81
-2.53
-3.97
-4.68
-4.51
-3.60
-2.37
-1.29
-0.70
-0.68
-0.98
-1.31
-1.34
-0.99
-0.48
-0.04
0.24
0.45
0.58
0.38
-0.62
-2.66
-5.43
-8.12
-9.72
-9.54
-7.65
-4.95
-2.67
-1.66
-1.92
-2.73
-3.32
-3.38
-3.23
-3.47
-4.65
-6.75
-9.23
-11.28
-11.58
-9.53
-5.85
-2.29
-0.11
0.55
0.48
0.67
1.61
3.23
4.82
5.67
5.39
4.17
2.58
1.35
1.12
2.18
4.44
7.23
9.64
10.90
10.73
9.06
6.56
4.10
2.38
1.64
1.63
1.91
2.13
2.22
2.16
2.05
1.90
1.68
1.41
1.04
0.58
0.09
-0.31
-0.47
-0.30
0.14
0.64
0.98
1.03
0.75
0.29
-0.19
-0.55
-0.74
-0.79
-0.76
-0.69
-0.60
-0.49
-0.37
-0.24
-0.12
0.00
0.13
0.26
0.40
0.51
0.54
0.45
0.26
0.07
0.00
0.13
0.39
0.64
0.71
0.51
0.11
-0.32
-0.59
-0.63
-0.48
-0.28
-0.15
-0.14
-0.21
-0.26
-0.24
-0.16
-0.05
0.06
0.16
0.24
0.29
0.29
0.21
0.05
-0.13
-0.26
-0.27
-0.14
0.11
0.39
0.57
0.56
0.32
-0.05
-0.41
-0.57
-0.56
-0.44
-0.33
-0.29
-0.24
-0.10
0.16
0.41
0.44
0.04
-0.72
-1.56
-2.12
-2.10
-1.47
-0.40
0.76
1.77
2.45
2.75
2.58
1.87
0.63
-1.04
-2.84
-4.37
-5.24
-5.03
-3.64
-1.32
1.35
3.85
5.46
5.64
4.31
1.86
-1.15
-3.53
-4.47
-4.04
-2.96
-2.04
-1.67
-1.87
-2.40
-2.79
-2.52
-1.41
0.23
1.77
2.52
2.29
1.42
0.59
0.46
1.21
2.35
3.06
2.69
1.38
-0.18
-0.94
-0.34
1.32
3.06
3.85
3.32
1.86
0.24
-0.72
-0.76
-0.14
0.59
0.93
0.71
0.07
-0.59
-0.92
-0.71
-0.17
0.38
0.64
0.48
0.04
-0.42
-0.65
-0.57
-0.22
0.21
0.54
0.65
0.55
0.30
-0.06
-0.56
-1.22
-1.96
-2.60
-2.87
-2.59
-1.73
-0.46
0.88
1.97
2.54
2.55
2.13
1.50
0.85
0.28
-0.23
-0.68
-1.06
-1.31
-1.35
-1.13
-0.72
-0.20
0.23
0.42
0.35
0.09
-0.21
-0.42
-0.50
-0.45
-0.38
-0.35
-0.33
-0.26
-0.06
0.27
0.69
1.14
1.51
1.76
1.80
1.66
1.38
1.05
0.74
0.54
0.51
0.68
0.92
0.95
0.61
-0.16
-1.10
-1.99
-2.52
-2.50
-2.02
-1.26
-0.45
0.34
0.99
1.10
0.04
-2.77
-6.98
-10.87
-12.36
-10.47
-5.79
-0.12
4.39
6.85
7.26
6.42
5.37
4.80
4.78
4.87
4.68
4.02
3.02
1.94
1.13
0.83
1.06
1.53
2.00
2.38
2.64
3.01
3.41
3.79
3.94
3.57
2.60
1.26
0.16
-0.41
-0.50
-0.74
-1.91
-4.54
-8.44
-12.43
-14.84
-14.01
-9.46
-2.16
5.65
11.58
14.05
12.86
8.97
3.78
-1.43
-5.90
-9.20
-10.97
-10.79
-8.46
-4.32
0.73
5.15
7.61
7.55
5.38
2.31
-0.45
-1.91
-1.87
-0.81
0.42
1.05
0.66
-0.70
-2.48
-4.18
-5.27
-5.49
-4.88
-3.58
-1.77
0.31
2.25
3.67
4.24
3.97
2.97
1.40
-0.61
-2.81
-4.84
-6.30
-6.92
-6.73
-6.08
-5.14
-4.20
-3.51
-3.22
-3.16
-3.13
-2.90
-2.30
-1.15
0.76
3.10
5.42
6.89
6.94
5.46
3.09
0.81
-0.48
-0.47
0.45
1.71
2.65
3.08
3.07
2.99
3.05
3.27
3.47
3.44
3.25
2.93
2.47
1.63
0.33
-1.25
-2.61
-3.16
-2.70
-1.41
0.10
1.24
1.72
1.55
1.05
0.46
-0.02
-0.31
-0.22
0.26
0.91
1.30
1.10
0.24
-1.09
-2.39
-3.25
-3.36
-2.79
-1.72
-0.73
-0.15
-0.05
-0.60
-1.86
-3.68
-5.38
-5.84
-4.20
-0.45
4.54
9.33
12.57
13.12
10.83
6.11
0.94
-2.51
-3.49
-3.02
-2.46
-2.54
-2.93
-2.85
-1.79
0.22
2.32
3.40
2.81
0.71
-2.14
-4.58
-5.74
-5.18
-3.05
-0.25
2.07
3.07
2.58
1.21
-0.01
-0.50
-0.17
0.69
1.45
1.63
1.10
0.13
-0.81
-1.36
-1.35
-0.88
-0.05
0.86
1.62
2.06
2.13
1.90
1.48
0.96
0.43
-0.01
-0.35
-0.61
-0.84
-1.05
-1.24
-1.41
-1.55
-1.66
-1.69
-1.64
-1.50
-1.27
-0.95
-0.56
-0.12
0.33
0.70
0.92
0.93
0.70
0.28
-0.24
-0.70
-0.99
-1.04
-0.86
-0.55
-0.20
0.09
0.27
0.35
0.38
0.40
0.43
0.46
0.45
0.39
0.27
0.11
-0.09
-0.34
-0.64
-0.97
-1.22
-1.28
-1.06
-0.59
-0.01
0.45
0.59
0.39
-0.03
-0.41
-0.51
-0.27
0.22
0.75
1.11
1.21
1.09
0.91
0.80
0.84
0.97
1.04
0.92
0.57
0.08
-0.41
-0.70
-0.73
-0.51
-0.16
0.20
0.47
0.64
0.76
0.87
0.97
0.99
0.87
0.59
0.20
-0.19
-0.50
-0.65
-0.67
-0.55
-0.35
-0.07
0.22
0.43
0.45
0.21
-0.26
-0.81
-1.24
-1.42
-1.34
-1.10
-0.87
-0.76
-0.78
-0.86
-0.88
-0.78
-0.58
-0.39
-0.30
-0.34
-0.45
-0.50
-0.39
-0.09
0.32
0.70
0.92
0.93
0.82
0.75
0.80
0.98
1.19
1.32
1.33
1.31
1.37
1.59
1.87
2.03
1.90
1.44
0.79
0.19
-0.13
-0.07
0.29
0.75
1.12
1.27
1.16
0.88
0.51
0.16
-0.10
-0.21
-0.11
0.15
0.46
0.61
0.46
-0.03
-0.72
-1.40
-1.90
-2.14
-2.24
-2.35
-2.57
-2.81
-2.90
-2.68
-2.16
-1.53
-1.07
-0.97
-1.21
-1.56
-1.72
-1.47
-0.79
0.18
1.17
1.97
2.43
2.56
2.48
2.27
2.04
1.84
1.70
1.62
1.65
1.80
2.02
2.27
2.43
2.45
2.36
2.19
2.00
1.75
1.38
0.87
0.27
-0.27
-0.57
-0.52
-0.10
0.59
1.43
2.32
3.10
3.57
3.53
2.85
1.67
0.35
-0.65
-1.06
-0.87
-0.40
-0.03
0.03
-0.16
-0.31
-0.19
0.22
0.64
0.68
0.06
-1.21
-2.80
-4.26
-5.17
-5.40
-5.06
-4.48
-3.96
-3.66
-3.48
-3.29
-2.93
-2.40
-1.75
-1.06
-0.33
0.41
1.11
1.65
1.88
1.79
1.49
1.24
1.22
1.46
1.74
1.75
1.26
0.27
-0.99
-2.16
-2.88
-2.90
-2.15
-0.81
0.74
2.04
2.68
2.46
1.52
0.22
-0.95
-1.68
-1.85
-1.57
-1.04
-0.43
0.14
0.62
0.99
1.20
1.19
0.95
0.48
-0.15
-0.83
-1.42
-1.75
-1.76
-1.45
-0.99
-0.59
-0.40
-0.43
-0.55
-0.58
-0.42
-0.19
-0.05
-0.14
-0.41
-0.62
-0.48
0.21
1.33
2.50
3.19
3.01
1.92
0.20
-1.63
-3.11
-3.97
-4.18
-3.90
-3.31
-2.52
-1.58
-0.55
0.42
1.08
1.28
0.94
0.09
-1.09
-2.29
-3.25
-3.64
-3.35
-2.44
-1.15
0.19
1.19
1.59
1.28
0.31
-1.22
-3.14
-5.12
-6.71
-7.53
-7.37
-6.35
-4.78
-3.10
-1.26
0.33
1.19
1.19
0.70
0.35
0.64
1.62
2.86
3.65
3.41
2.20
0.72
-0.27
-0.32
0.45
1.56
2.57
3.26
3.67
4.09
4.64
5.24
5.41
4.70
3.13
1.32
-0.01
-0.33
0.26
1.19
1.80
1.69
1.17
0.84
1.32
2.59
3.97
4.52
3.42
0.61
-3.28
-7.01
-9.22
-9.08
-6.73
-3.26
0.07
2.24
2.97
2.59
1.75
1.01
0.70
0.88
1.34
1.94
2.55
3.03
3.23
3.08
2.32
1.39
0.99
1.26
1.86
2.11
1.72
0.97
0.45
0.52
1.12
1.68
1.63
0.77
-0.56
-1.69
-2.09
-1.66
-0.73
0.22
0.74
0.65
0.03
-0.73
-1.27
-1.39
-1.13
-0.64
-0.09
0.31
0.36
-0.06
-0.87
-1.80
-2.48
-2.61
-2.15
-1.37
-0.79
-0.79
-1.38
-2.14
-2.49
-2.03
-0.85
0.47
1.29
1.16
0.16
-1.24
-2.47
-3.20
-3.38
-3.17
-2.80
-2.30
-1.53
-0.40
0.97
2.23
2.96
2.98
2.41
1.69
1.32
1.52
2.19
2.95
3.41
3.38
2.95
2.36
1.83
1.44
1.12
0.75
0.24
-0.38
-0.96
-1.34
-1.41
-1.20
-0.85
-0.52
-0.30
-0.17
-0.00
0.36
0.93
1.63
2.23
2.53
2.43
1.97
1.30
0.61
0.03
-0.39
-0.64
-0.76
-0.73
-0.55
-0.24
0.16
0.51
0.74
0.77
0.63
0.39
0.11
-0.10
-0.22
-0.18
0.01
0.33
0.76
1.24
1.69
1.94
1.77
1.02
-0.30
-1.88
-3.22
-3.86
-3.59
-2.62
-1.45
-0.63
-0.44
-0.79
-1.33
-1.70
-1.74
-1.56
-1.41
-1.44
-1.63
-1.78
-1.71
-1.32
-0.71
-0.01
0.63
1.15
1.56
1.88
2.10
2.13
1.95
1.51
0.91
0.27
-0.22
-0.50
-0.54
-0.39
-0.07
0.42
1.02
1.66
2.15
2.36
2.22
1.79
1.26
0.85
0.67
0.69
0.76
0.77
0.69
0.56
0.43
0.15
-0.39
-1.01
-1.46
-1.55
-1.34
-0.97
-0.67
-0.54
-0.56
-0.64
-0.70
-0.75
-0.89
-1.16
-1.45
-1.66
-1.59
-1.14
-0.40
0.46
1.21
1.63
1.51
0.71
-0.78
-2.65
-4.35
-5.19
-4.74
-3.10
-0.78
1.44
3.05
3.79
3.78
3.46
3.28
3.43
3.74
3.93
3.83
3.54
3.38
3.67
4.44
5.30
5.70
5.08
3.36
0.90
-1.64
-3.57
-4.43
-4.13
-2.90
-1.40
-0.25
0.15
-0.31
-1.41
-2.68
-3.54
-3.47
-2.42
-1.00
-0.06
-0.07
-0.95
-2.20
-3.11
-3.24
-2.53
-1.38
-0.41
-0.00
-0.25
-1.20
-3.05
-5.90
-9.43
-11.92
-11.13
-6.45
0.17
5.69
8.10
7.46
5.14
2.79
1.68
2.19
3.75
5.61
7.04
7.53
6.84
5.02
2.53
0.28
-0.98
-1.04
-0.17
1.02
1.88
2.03
1.52
0.84
0.62
1.25
2.51
3.91
4.89
5.20
4.83
3.85
2.32
0.42
-1.58
-3.26
-4.06
-3.62
-2.09
-0.10
1.39
1.59
0.59
-0.90
-1.69
-0.45
3.43
9.52
15.98
19.89
17.89
7.80
-10.06
-32.43
-53.78
-68.28
-71.86
-63.61
-45.90
-23.35
-1.16
16.54
27.46
31.51
30.10
25.50
19.81
14.49
10.13
6.76
4.39
3.28
3.93
6.22
9.44
12.17
13.15
12.21
9.88
7.13
4.38
1.60
-1.43
-4.50
-6.94
-7.99
-7.29
-5.21
-2.63
-0.47
0.80
1.18
0.96
0.43
-0.26
-0.99
-1.70
-2.24
-2.50
-2.43
-2.00
-1.33
-0.49
0.24
0.62
0.52
-0.00
-0.69
-1.06
-0.80
0.19
1.69
3.22
4.34
4.73
4.36
3.44
2.42
1.69
1.42
1.51
1.69
1.67
1.34
0.79
0.21
-0.17
-0.27
-0.15
0.05
0.19
0.23
0.21
0.15
0.08
0.01
-0.08
-0.18
-0.24
-0.25
-0.19
-0.10
-0.05
-0.05
-0.13
-0.26
-0.39
-0.50
-0.57
-0.58
-0.55
-0.49
-0.38
-0.25
-0.08
0.09
0.21
0.24
0.17
0.03
-0.11
-0.18
-0.17
-0.11
-0.02
-0.01
-0.06
-0.13
-0.17
-0.11
0.01
0.15
0.26
0.34
0.41
0.47
0.52
0.47
0.20
-0.31
-1.00
-1.65
-2.09
-2.17
-1.91
-1.43
-0.88
-0.31
0.27
0.88
1.46
1.86
1.91
1.57
0.95
0.26
-0.22
-0.37
-0.28
-0.16
-0.17
-0.37
-0.61
-0.71
-0.51
-0.02
0.57
0.96
0.99
0.65
0.10
-0.36
-0.54
-0.30
0.25
0.87
1.37
1.60
1.59
1.47
1.33
1.22
1.16
1.10
0.98
0.75
0.43
0.11
-0.15
-0.27
-0.22
-0.05
0.13
0.18
-0.03
-0.48
-1.05
-1.52
-1.70
-1.48
-0.90
-0.12
0.61
1.11
1.25
1.06
0.56
-0.19
-1.13
-2.08
-2.74
-2.89
-2.63
-2.25
-1.96
-1.79
-1.64
-1.42
-1.03
-0.55
-0.10
0.17
0.17
-0.15
-0.77
-1.51
-2.07
-2.04
-1.10
0.67
2.79
4.41
4.79
3.59
1.14
-1.66
-3.83
-4.70
-4.22
-2.90
-1.47
-0.45
-0.03
-0.10
-0.35
-0.50
-0.37
0.17
1.04
2.00
2.77
2.96
2.41
1.23
-0.05
-0.92
-1.03
-0.44
0.45
1.28
1.70
1.72
1.52
1.13
0.53
-0.28
-1.26
-2.00
-2.10
-1.36
0.00
1.43
2.19
1.92
0.76
-0.75
-1.87
-2.15
-1.51
-0.25
1.20
2.38
3.00
3.02
2.64
2.06
1.49
1.01
0.67
0.45
0.20
-0.13
-0.61
-1.25
-1.93
-2.55
-2.98
-3.05
-2.71
-1.86
-0.56
1.00
2.57
3.75
4.25
3.95
2.94
1.52
0.11
-1.04
-1.69
-1.92
-1.87
-1.76
-1.69
-1.79
-1.91
-1.85
-1.42
-0.64
0.21
0.71
0.51
-0.37
-1.56
-2.55
-3.03
-3.11
-3.08
-3.27
-3.77
-4.27
-4.25
-3.39
-1.76
0.09
1.45
1.96
1.63
0.86
0.11
-0.43
-0.78
-1.07
-1.31
-1.35
-0.91
0.10
1.58
3.25
4.72
5.67
5.90
5.43
4.42
3.18
2.05
1.29
1.01
1.11
1.40
1.65
1.73
1.61
1.40
1.14
0.89
0.66
0.48
0.39
0.47
0.79
1.32
1.97
2.55
2.86
2.76
2.20
1.28
0.18
-0.84
-1.58
-1.97
-2.03
-1.92
-1.80
-1.78
-1.88
-2.03
-2.15
-2.17
-2.08
-1.92
-1.73
-1.53
-1.34
-1.13
-0.88
-0.59
-0.26
0.07
0.37
0.59
0.73
0.80
0.87
1.00
1.24
1.59
1.99
2.32
2.47
2.35
1.94
1.33
0.67
0.16
-0.08
-0.01
0.28
0.60
0.73
0.57
0.20
-0.18
-0.32
-0.08
0.53
1.34
2.14
2.72
2.97
2.95
2.76
2.52
2.28
1.88
1.29
0.63
-0.12
-1.13
-2.53
-4.29
-6.16
-7.75
-8.61
-8.48
-7.33
-5.46
-3.45
-1.94
-1.34
-1.67
-2.42
-2.81
-2.11
-0.11
2.63
4.95
5.92
4.98
2.57
-0.25
-2.28
-3.01
-2.41
-0.91
0.98
3.09
5.15
6.52
6.31
4.01
0.16
-3.63
-5.40
-4.17
-0.60
3.35
5.23
3.81
-0.27
-5.01
-8.11
-8.16
-5.41
-1.07
3.60
7.75
10.54
10.87
7.82
1.35
-6.87
-13.88
-16.76
-14.47
-8.29
-1.35
3.56
5.09
3.85
1.69
0.44
0.88
2.64
4.43
5.15
4.19
1.64
-1.68
-5.00
-7.88
-9.98
-10.56
-8.86
-4.28
2.89
11.32
18.77
22.99
22.57
16.99
7.74
-2.38
-10.52
-14.93
-15.51
-13.38
-10.07
-6.83
-4.23
-2.39
-1.27
-0.78
-0.81
-1.14
-1.40
-1.31
-0.65
0.51
1.92
3.28
4.36
4.99
5.16
5.03
4.86
4.89
5.13
5.15
4.62
3.60
2.53
1.74
1.33
1.09
0.84
0.50
0.07
-0.26
-0.49
-0.77
-1.23
-1.89
-2.51
-2.73
-2.33
-1.37
-0.03
1.37
2.46
2.78
1.93
-0.22
-3.30
-6.53
-8.82
-9.17
-7.24
-3.58
0.61
4.01
5.78
5.82
4.63
2.93
1.45
0.61
0.58
1.23
2.37
3.82
5.08
5.63
4.80
2.29
-1.66
-6.48
-11.21
-14.57
-15.54
-13.76
-9.77
-4.97
-1.20
-0.05
-1.90
-5.46
-8.23
-7.73
-3.10
4.33
11.74
16.40
17.00
14.26
10.31
6.60
4.35
3.47
2.82
1.39
-0.59
-2.05
-2.16
-0.93
0.82
2.14
2.44
1.58
-0.05
-1.67
-2.75
-3.01
-2.43
-1.34
-0.16
0.54
0.39
-0.52
-1.70
-2.55
-2.62
-1.83
-0.50
0.88
1.75
1.76
0.97
-0.23
-1.34
-1.98
-2.02
-1.60
-0.96
-0.41
-0.15
-0.16
-0.29
-0.37
-0.27
-0.00
0.37
0.78
1.11
1.26
1.16
0.84
0.37
-0.09
-0.36
-0.32
0.01
0.50
0.91
1.01
0.74
0.16
-0.50
-1.00
-1.20
-1.10
-0.81
-0.50
-0.26
-0.06
0.14
0.37
0.54
0.52
0.22
-0.31
-0.87
-1.23
-1.23
-0.86
-0.30
0.23
0.58
0.70
0.65
0.49
0.25
-0.06
-0.43
-0.76
-0.92
-0.81
-0.45
0.05
0.53
0.86
1.01
1.08
1.17
1.35
1.57
1.71
1.62
1.25
0.65
-0.03
-0.61
-0.94
-0.96
-0.66
-0.14
0.47
1.02
1.39
1.52
1.42
1.15
0.78
0.38
-0.03
-0.43
-0.80
-1.14
-1.46
-1.78
-2.14
-2.53
-2.85
-2.96
-2.73
-2.15
-1.37
-0.66
-0.25
-0.27
-0.62
-1.08
-1.42
-1.52
-1.39
-1.16
-0.96
-0.85
-0.79
-0.71
-0.55
-0.32
-0.08
0.14
0.29
0.41
0.54
0.74
0.98
1.22
1.41
1.49
1.46
1.40
1.38
1.45
1.62
1.83
1.95
1.89
1.61
1.14
0.60
0.12
-0.20
-0.33
-0.32
-0.24
-0.18
-0.18
-0.24
-0.37
-0.52
-0.67
-0.79
-0.85
-0.78
-0.55
-0.16
0.29
0.67
0.80
0.66
0.35
0.06
0.01
0.29
0.83
1.46
2.00
2.34
2.51
2.55
2.47
2.25
1.79
1.08
0.24
-0.52
-0.96
-0.94
-0.47
0.28
1.06
1.69
2.08
2.23
2.21
2.09
1.93
1.77
1.63
1.54
1.45
1.27
0.93
0.41
-0.18
-0.65
-0.85
-0.76
-0.52
-0.43
-0.67
-1.23
-1.89
-2.32
-2.33
-1.97
-1.53
-1.32
-1.49
-1.90
-2.25
-2.31
-2.01
-1.53
-1.11
-0.91
-0.89
-0.93
-0.95
-0.99
-1.11
-1.27
-1.26
-0.81
0.23
1.67
3.06
3.92
3.97
3.30
2.29
1.33
0.63
0.18
-0.16
-0.54
-0.93
-1.20
-1.18
-0.83
-0.24
0.39
0.81
0.85
0.46
-0.21
-0.99
-1.63
-1.99
-2.11
-2.06
-1.94
-1.76
-1.60
-1.66
-2.26
-3.63
-5.68
-7.88
-9.43
-9.64
-8.33
-5.98
-3.47
-1.59
-0.67
-0.45
-0.40
-0.08
0.52
1.05
1.09
0.52
-0.39
-1.13
-1.27
-0.74
0.24
1.16
1.66
1.59
1.12
0.59
0.26
0.24
0.41
0.63
0.81
0.98
1.26
1.71
2.24
2.65
2.76
2.50
1.98
1.43
1.03
0.84
0.77
0.67
0.48
0.30
0.24
0.38
0.64
0.81
0.72
0.34
-0.15
-0.55
-0.72
-0.70
-0.66
-0.72
-0.87
-0.97
-0.88
-0.58
-0.21
0.01
-0.04
-0.29
-0.55
-0.61
-0.41
-0.07
0.20
0.20
-0.07
-0.45
-0.66
-0.53
-0.01
0.75
1.53
2.11
2.41
2.47
2.44
2.43
2.51
2.64
2.78
2.88
2.93
2.94
2.91
2.80
2.55
2.21
1.82
1.49
1.32
1.31
1.40
1.47
1.41
1.17
0.77
0.27
-0.23
-0.66
-0.97
-1.12
-1.09
-0.91
-0.66
-0.42
-0.27
-0.25
-0.34
-0.48
-0.62
-0.71
-0.72
-0.66
-0.52
-0.31
-0.05
0.22
0.44
0.56
0.54
0.39
0.14
-0.19
-0.54
-0.85
-1.06
-1.09
-0.93
-0.66
-0.41
-0.33
-0.47
-0.79
-1.13
-1.37
-1.42
-1.28
-0.98
-0.56
-0.05
0.55
1.13
1.57
1.72
1.52
1.02
0.36
-0.28
-0.81
-1.21
-1.50
-1.70
-1.78
-1.68
-1.38
-0.94
-0.45
-0.04
0.25
0.43
0.59
0.81
1.10
1.41
1.60
1.57
1.25
0.71
0.11
-0.35
-0.53
-0.38
0.04
0.60
1.18
1.71
2.15
2.46
2.59
2.42
1.92
1.14
0.26
-0.47
-0.89
-1.00
-0.93
-0.86
-0.95
-1.19
-1.45
-1.57
-1.42
-1.00
-0.44
0.06
0.31
0.18
-0.32
-1.00
-1.60
-1.80
-1.45
-0.60
0.49
1.44
2.00
2.11
1.97
1.86
2.01
2.51
3.18
3.77
4.01
3.77
3.03
2.01
0.96
0.21
-0.01
0.34
1.15
2.19
3.20
3.88
3.94
3.20
1.69
-0.21
-1.87
-2.64
-2.17
-0.72
0.97
1.97
1.82
0.61
-0.80
-1.41
-0.70
1.18
3.43
5.05
5.24
3.57
0.14
-4.46
-9.21
-12.81
-14.19
-12.97
-9.67
-5.60
-2.22
-0.50
-0.40
-1.08
-1.50
-1.03
0.17
1.36
1.83
1.34
0.27
-0.67
-0.96
-0.60
0.12
0.59
0.54
0.05
-0.50
-0.71
-0.46
0.11
0.62
0.73
0.36
-0.27
-0.89
-1.34
-1.50
-1.29
-0.50
1.15
3.56
6.28
8.50
9.41
8.63
6.56
4.06
2.03
0.87
0.28
-0.35
-1.49
-2.98
-4.19
-4.45
-3.58
-2.10
-0.84
-0.61
-1.48
-2.95
-4.14
-4.27
-3.09
-1.02
0.98
1.76
0.42
-3.15
-8.17
-13.11
-16.14
-16.09
-12.82
-7.35
-1.45
3.23
5.85
6.58
6.28
5.87
5.79
5.85
5.60
4.71
3.34
2.04
1.52
2.13
3.78
5.71
7.06
7.25
6.17
4.34
2.48
1.19
0.72
0.79
0.96
1.05
1.07
0.98
0.35
-1.44
-4.78
-9.26
-13.71
-16.45
-16.30
-13.27
-8.50
-3.71
-0.15
1.69
1.84
0.39
-2.90
-7.72
-12.64
-15.39
-14.27
-9.34
-2.40
4.11
8.26
9.55
8.58
6.57
4.56
2.94
1.75
0.98
0.75
1.11
1.93
2.95
3.89
4.57
4.72
4.34
3.56
2.61
1.82
1.42
1.53
2.02
2.57
2.90
2.78
2.28
1.72
1.45
1.63
2.13
2.57
2.55
1.88
0.73
-0.41
-1.09
-1.11
-0.68
-0.17
0.04
-0.12
-0.51
-0.87
-1.06
-1.12
-1.10
-0.97
-0.58
0.16
1.09
1.86
2.13
1.86
1.26
0.70
0.34
0.12
-0.17
-0.63
-1.11
-1.34
-1.14
-0.58
0.04
0.48
0.72
1.00
1.60
2.52
3.49
4.07
3.99
3.28
2.23
1.24
0.54
0.10
-0.20
-0.52
-0.88
-1.18
-1.30
-1.16
-0.78
-0.28
0.17
0.42
0.36
0.02
-0.46
-0.91
-1.16
-1.11
-0.82
-0.43
-0.13
-0.04
-0.17
-0.41
-0.61
-0.64
-0.49
-0.25
-0.03
0.07
0.05
-0.07
-0.16
-0.18
-0.09
0.06
0.19
0.26
0.25
0.19
0.13
0.12
0.16
0.27
0.38
0.47
0.46
0.31
0.01
-0.37
-0.66
-0.72
-0.44
0.09
0.69
1.12
1.22
0.98
0.45
-0.20
-0.82
-1.25
-1.35
-1.03
-0.36
0.47
1.14
1.41
1.20
0.70
0.24
0.00
-0.04
-0.08
-0.34
-0.85
-1.45
-1.79
-1.59
-0.79
0.39
1.61
2.53
2.76
2.07
0.43
-1.90
-4.34
-6.17
-6.76
-5.80
-3.52
-0.49
2.46
4.51
5.24
4.59
2.91
0.91
-0.53
-0.76
0.36
2.27
3.97
4.50
3.44
1.20
-1.31
-3.08
-3.61
-3.19
-2.31
-1.82
-2.02
-2.57
-2.72
-1.96
-0.41
1.27
2.26
2.18
1.18
-0.07
-0.91
-1.03
-0.61
-0.13
0.01
-0.27
-0.72
-0.92
-0.53
0.47
1.76
2.74
2.90
1.98
0.22
-1.76
-3.31
-3.90
-3.42
-2.34
-1.22
-0.50
-0.25
-0.20
-0.05
0.31
0.69
0.79
0.38
-0.40
-1.20
-1.65
-1.55
-1.07
-0.55
-0.17
0.11
0.55
1.28
2.19
2.85
2.82
1.85
0.14
-1.82
-3.43
-4.24
-4.03
-2.86
-0.89
1.61
4.22
6.29
7.20
6.65
4.90
2.64
0.70
-0.39
-0.55
-0.21
0.16
0.24
0.08
-0.08
-0.04
0.21
0.48
0.54
0.28
-0.22
-0.73
-1.03
-1.03
-0.80
-0.50
-0.28
-0.24
-0.34
-0.50
-0.59
-0.57
-0.42
-0.19
0.01
0.11
0.08
-0.06
-0.26
-0.40
-0.41
-0.28
-0.05
0.19
0.32
0.30
0.13
-0.09
-0.28
-0.33
-0.24
-0.04
0.19
0.37
0.47
0.47
0.39
0.26
0.10
-0.05
-0.15
-0.19
-0.16
-0.09
-0.03
-0.00
-0.04
-0.11
-0.20
-0.26
-0.31
-0.36
-0.40
-0.41
-0.35
-0.21
0.00
0.21
0.32
0.31
0.19
0.05
-0.03
0.02
0.18
0.38
0.53
0.57
0.49
0.32
0.17
0.10
0.16
0.33
0.56
0.79
0.94
1.00
0.93
0.78
0.59
0.38
0.20
0.15
0.34
0.79
1.37
1.83
1.91
1.46
0.52
-0.66
-1.73
-2.38
-2.53
-2.26
-1.79
-1.25
-0.59
0.16
0.78
1.03
0.68
-0.22
-1.47
-2.73
-3.55
-3.66
-3.09
-2.13
-1.20
-0.63
-0.50
-0.68
-0.94
-1.06
-1.00
-0.83
-0.63
-0.43
-0.18
0.16
0.51
0.73
0.68
0.27
-0.50
-1.47
-2.42
-3.16
-3.51
-3.44
-3.02
-2.40
-1.77
-1.28
-1.02
-0.97
-1.03
-1.07
-0.93
-0.52
0.15
0.96
1.72
2.23
2.33
2.03
1.47
0.91
0.57
0.49
0.59
0.74
0.85
0.95
1.14
1.55
2.27
3.23
4.16
4.75
4.87
4.55
4.04
3.60
3.47
3.83
4.59
5.50
6.25
6.64
6.54
5.82
4.34
1.72
-1.70
-4.84
-6.61
-6.70
-5.50
-3.79
-2.32
-1.54
-1.47
-1.76
-2.00
-1.98
-1.72
-1.39
-1.13
-1.05
-1.17
-1.39
-1.49
-1.32
-0.91
-0.44
-0.14
-0.13
-0.44
-0.89
-1.23
-1.24
-0.86
-0.30
0.13
0.20
-0.15
-0.75
-1.33
-1.61
-1.47
-0.98
-0.41
0.00
0.17
0.14
0.04
-0.04
-0.12
-0.27
-0.56
-0.97
-1.35
-1.49
-1.32
-0.87
-0.36
0.03
0.19
0.24
0.28
0.42
0.61
0.71
0.63
0.41
0.22
0.17
0.27
0.37
0.33
0.11
-0.17
-0.38
-0.46
-0.51
-0.67
-1.00
-1.31
-1.26
-0.51
0.93
2.58
3.74
3.81
2.55
0.25
-2.34
-4.37
-5.17
-4.58
-2.89
-0.66
1.56
3.47
4.87
5.45
5.05
3.83
2.28
0.90
-0.00
-0.37
-0.41
-0.39
-0.45
-0.51
-0.41
-0.00
0.61
1.19
1.42
1.22
0.71
0.19
-0.04
0.11
0.50
0.81
0.77
0.34
-0.33
-0.98
-1.35
-1.33
-0.98
-0.45
-0.01
0.18
0.09
-0.17
-0.44
-0.59
-0.56
-0.39
-0.19
-0.04
0.03
0.02
-0.04
-0.10
-0.16
-0.20
-0.22
-0.19
-0.11
0.02
0.15
0.23
0.24
0.18
0.07
-0.06
-0.18
-0.27
-0.33
-0.37
-0.36
-0.29
-0.15
0.03
0.18
0.23
0.15
-0.03
-0.25
-0.39
-0.40
-0.29
-0.12
0.03
0.11
0.13
0.11
0.12
0.16
0.23
0.28
0.28
0.22
0.13
0.05
0.03
0.08
0.17
0.25
0.27
0.19
0.02
-0.20
-0.40
-0.55
-0.60
-0.55
-0.41
-0.21
0.01
0.21
0.33
0.32
0.16
-0.13
-0.45
-0.67
-0.70
-0.50
-0.14
0.23
0.45
0.44
0.20
-0.14
-0.44
-0.57
-0.52
-0.33
-0.10
0.11
0.28
0.45
0.67
0.97
1.31
1.61
1.81
1.86
1.78
1.61
1.42
1.25
1.08
0.88
0.63
0.32
0.01
-0.25
-0.44
-0.59
-0.77
-1.06
-1.47
-1.96
-2.40
-2.68
-2.73
-2.56
-2.25
-1.89
-1.53
-1.24
-1.01
-0.87
-0.83
-0.92
-1.11
-1.33
-1.49
-1.47
-1.19
-0.69
-0.06
0.52
0.90
1.00
0.86
0.58
0.31
0.15
0.14
0.21
0.31
0.36
0.35
0.29
0.25
0.29
0.43
0.64
0.86
1.03
1.10
1.08
0.97
0.84
0.76
0.78
0.92
1.19
1.53
1.84
2.00
1.91
1.53
0.93
0.26
-0.28
-0.54
-0.48
-0.17
0.20
0.44
0.45
0.25
-0.03
-0.22
-0.23
-0.04
0.26
0.52
0.66
0.66
0.55
0.42
0.32
0.29
0.32
0.38
0.43
0.45
0.46
0.46
0.50
0.61
0.76
0.91
1.00
1.00
0.94
0.88
0.88
0.98
1.13
1.26
1.31
1.27
1.16
1.05
0.96
0.90
0.86
0.83
0.81
0.80
0.81
0.80
0.75
0.61
0.41
0.18
-0.02
-0.20
-0.37
-0.60
-0.94
-1.39
-1.88
-2.30
-2.52
-2.49
-2.23
-1.84
-1.43
-1.13
-0.97
-0.96
-1.08
-1.27
-1.49
-1.70
-1.82
-1.81
-1.67
-1.39
-1.07
-0.77
-0.53
-0.36
-0.24
-0.14
-0.04
0.03
0.11
0.22
0.36
0.56
0.85
1.25
1.72
2.13
2.25
1.87
0.91
-0.45
-1.81
-2.71
-2.89
-2.45
-1.79
-1.37
-1.44
-1.94
-2.55
-2.91
-2.88
-2.56
-2.27
-2.27
-2.63
-3.19
-3.68
-3.82
-3.50
-2.84
-2.09
-1.49
-1.19
-1.11
-1.10
-1.02
-0.82
-0.55
-0.30
-0.06
0.20
0.50
0.79
0.93
0.78
0.38
-0.08
-0.25
0.09
0.86
1.76
2.43
2.70
2.65
2.50
2.43
2.49
2.55
2.44
2.07
1.53
1.01
0.55
0.19
-0.14
-0.38
-0.44
-0.20
0.35
1.13
1.81
1.84
0.87
-1.17
-3.60
-5.18
-5.06
-3.48
-1.47
0.08
1.01
1.81
3.08
4.83
6.20
5.96
3.57
-0.23
-3.63
-4.89
-3.45
-0.33
2.83
4.55
4.24
2.54
0.74
-0.12
0.21
1.12
1.83
1.90
1.38
0.49
-0.25
-0.54
-0.36
0.14
0.65
0.93
0.88
0.40
-0.59
-2.13
-4.17
-6.52
-8.53
-10.00
-10.36
-9.23
-6.60
-2.95
1.00
4.49
6.96
8.18
8.20
7.03
5.10
3.11
1.64
0.88
0.70
0.84
1.04
1.14
1.12
1.11
1.18
1.23
1.16
0.89
0.48
0.04
-0.30
-0.45
-0.37
-0.09
0.23
0.49
0.56
0.43
0.13
-0.24
-0.52
-0.57
-0.37
-0.02
0.33
0.53
0.55
0.41
0.16
-0.18
-0.57
-0.97
-1.30
-1.42
-1.27
-0.90
-0.45
-0.10
0.04
-0.05
-0.32
-0.67
-1.01
-1.27
-1.36
-1.22
-0.84
-0.31
0.22
0.61
0.74
0.66
0.49
0.33
0.26
0.26
0.26
0.23
0.18
0.18
0.27
0.44
0.60
0.67
0.57
0.31
-0.02
-0.31
-0.44
-0.39
-0.24
-0.10
-0.12
-0.36
-0.79
-1.26
-1.58
-1.61
-1.29
-0.72
-0.06
0.54
0.99
1.28
1.44
1.51
1.47
1.31
1.06
0.78
0.55
0.42
0.39
0.42
0.43
0.43
0.46
0.58
0.84
1.20
1.55
1.76
1.72
1.42
0.89
0.25
-0.36
-0.85
-1.16
-1.27
-1.24
-1.14
-1.04
-0.99
-1.01
-1.06
-1.14
-1.22
-1.28
-1.34
-1.41
-1.49
-1.56
-1.56
-1.42
-1.11
-0.66
-0.15
0.27
0.49
0.47
0.25
-0.03
-0.24
-0.29
-0.15
0.13
0.46
0.78
1.03
1.21
1.31
1.33
1.26
1.10
0.85
0.55
0.25
0.01
-0.16
-0.25
-0.29
-0.27
-0.18
-0.02
0.22
0.48
0.67
0.72
0.63
0.47
0.35
0.38
0.58
0.89
1.21
1.41
1.47
1.39
1.20
0.96
0.70
0.43
0.16
-0.06
-0.22
-0.28
-0.24
-0.15
-0.04
0.02
0.01
-0.07
-0.20
-0.32
-0.38
-0.35
-0.24
-0.09
0.04
0.10
0.04
-0.16
-0.45
-0.77
-1.06
-1.26
-1.36
-1.38
-1.34
-1.25
-1.12
-0.92
-0.67
-0.41
-0.20
-0.08
-0.07
-0.11
-0.14
-0.07
0.10
0.35
0.62
0.84
0.97
1.00
0.94
0.83
0.67
0.49
0.27
0.05
-0.17
-0.35
-0.48
-0.52
-0.48
-0.36
-0.20
-0.07
-0.02
-0.10
-0.29
-0.54
-0.75
-0.86
-0.82
-0.67
-0.46
-0.26
-0.12
-0.05
-0.04
-0.04
-0.05
-0.01
0.11
0.31
0.59
0.90
1.15
1.32
1.37
1.36
1.32
1.30
1.29
1.24
1.14
1.01
0.89
0.81
0.78
0.74
0.65
0.49
0.28
0.09
-0.02
-0.05
-0.05
-0.07
-0.16
-0.29
-0.42
-0.49
-0.48
-0.44
-0.44
-0.54
-0.73
-0.91
-0.97
-0.86
-0.57
-0.18
0.19
0.42
0.44
0.27
-0.02
-0.32
-0.52
-0.57
-0.41
-0.06
0.37
0.68
0.66
0.16
-0.78
-1.90
-2.80
-3.08
-2.57
-1.44
-0.10
1.01
1.65
1.82
1.71
1.39
0.90
0.36
-0.16
-0.67
-1.14
-1.51
-1.67
-1.57
-1.29
-0.93
-0.62
-0.36
-0.06
0.37
0.89
1.22
1.04
0.18
-1.06
-2.08
-2.27
-1.42
0.02
1.22
1.42
0.40
-1.31
-2.72
-3.00
-1.96
-0.07
1.97
3.39
3.97
3.78
3.13
2.44
1.98
1.74
1.41
0.54
-1.12
-3.40
-5.58
-6.64
-5.64
-2.54
1.85
5.98
8.36
8.44
6.79
4.62
2.93
1.93
0.97
-0.74
-3.57
-7.06
-9.72
-9.86
-6.92
-2.35
1.54
2.86
1.50
-1.21
-3.42
-3.90
-2.67
-0.62
1.02
1.58
1.03
-0.08
-1.06
-1.25
-0.01
2.43
5.49
7.82
7.98
5.24
0.15
-5.63
-10.07
-11.88
-11.26
-9.37
-7.48
-5.94
-4.03
-0.73
4.29
10.13
14.90
16.67
14.78
10.18
4.97
1.17
-0.41
-0.23
0.51
0.81
0.31
-0.58
-1.28
-1.45
-1.02
-0.41
0.03
0.10
-0.26
-0.94
-1.76
-2.59
-3.31
-3.86
-4.18
-4.25
-4.03
-3.55
-2.86
-2.02
-1.04
0.09
1.37
2.71
3.89
4.62
4.62
3.83
2.45
0.88
-0.48
-1.43
-2.04
-2.53
-3.06
-3.61
-3.96
-3.97
-3.62
-2.98
-2.16
-1.23
-0.23
0.70
1.42
1.89
2.14
2.38
2.78
3.34
3.88
4.05
3.60
2.47
0.86
-0.86
-2.27
-2.97
-2.78
-1.79
-0.36
0.95
1.67
1.65
1.18
0.75
0.72
1.04
1.35
1.23
0.56
-0.36
-0.99
-0.97
-0.30
0.65
1.32
1.40
0.86
0.00
-0.81
-1.32
-1.47
-1.33
-1.04
-0.66
-0.24
0.16
0.43
0.47
0.26
-0.10
-0.42
-0.53
-0.34
0.04
0.44
0.68
0.71
0.56
0.34
0.11
-0.16
-0.51
-0.95
-1.38
-1.63
-1.51
-0.95
-0.07
0.85
1.52
1.71
1.45
0.88
0.28
-0.15
-0.34
-0.35
-0.29
-0.25
-0.26
-0.29
-0.30
-0.24
-0.13
-0.00
0.07
0.05
-0.06
-0.22
-0.33
-0.33
-0.19
0.05
0.32
0.55
0.73
0.88
1.04
1.17
1.21
1.09
0.78
0.34
-0.13
-0.51
-0.69
-0.68
-0.55
-0.42
-0.37
-0.43
-0.54
-0.63
-0.63
-0.54
-0.37
-0.18
-0.05
-0.03
-0.11
-0.27
-0.44
-0.56
-0.57
-0.44
-0.22
0.04
0.26
0.35
0.30
0.15
-0.03
-0.14
-0.16
-0.11
-0.05
-0.02
-0.06
-0.11
-0.12
-0.04
0.16
0.41
0.66
0.84
0.92
0.95
0.97
1.01
1.06
1.03
0.86
0.56
0.22
-0.01
-0.03
0.13
0.30
0.31
0.02
-0.56
-1.28
-1.92
-2.32
-2.41
-2.22
-1.83
-1.36
-0.91
-0.59
-0.48
-0.59
-0.85
-1.13
-1.28
-1.23
-0.99
-0.67
-0.34
-0.06
0.20
0.48
0.78
1.04
1.14
1.03
0.71
0.30
-0.06
-0.26
-0.29
-0.18
-0.00
0.19
0.36
0.50
0.60
0.63
0.59
0.52
0.44
0.39
0.39
0.43
0.52
0.66
0.89
1.21
1.56
1.87
2.04
2.03
1.83
1.51
1.12
0.74
0.41
0.17
0.01
-0.06
-0.11
-0.16
-0.29
-0.48
-0.71
-0.90
-0.97
-0.88
-0.65
-0.36
-0.08
0.12
0.23
0.25
0.22
0.16
0.07
-0.03
-0.15
-0.26
-0.35
-0.44
-0.48
-0.47
-0.36
-0.15
0.12
0.38
0.57
0.63
0.54
0.36
0.17
0.02
-0.07
-0.13
-0.19
-0.25
-0.31
-0.35
-0.38
-0.37
-0.34
-0.27
-0.19
-0.13
-0.11
-0.18
-0.40
-0.76
-1.19
-1.60
-1.94
-2.25
-2.60
-2.80
-2.64
-2.16
-1.60
-1.18
-1.03
-0.95
-0.71
-0.20
0.58
1.48
2.19
2.37
1.86
0.79
-0.45
-1.37
-1.60
-1.03
0.04
1.07
1.56
1.26
0.26
-1.04
-2.20
-2.85
-2.88
-2.41
-1.73
-1.11
-0.65
-0.30
0.10
0.66
1.34
1.96
2.30
2.21
1.71
1.02
0.38
0.01
-0.07
0.01
0.07
-0.01
-0.24
-0.52
-0.75
-0.88
-0.92
-0.95
-1.06
-1.23
-1.36
-1.30
-0.99
-0.52
-0.16
-0.10
-0.12
0.01
0.43
1.09
1.84
2.49
2.87
2.92
2.73
2.43
2.09
1.75
1.39
1.04
0.72
0.51
0.45
0.56
0.82
1.10
1.30
1.33
1.16
0.83
0.41
0.01
-0.25
-0.30
-0.14
0.14
0.47
0.75
0.95
1.01
0.93
0.73
0.46
0.19
-0.03
-0.17
-0.24
-0.30
-0.41
-0.60
-0.81
-0.95
-0.95
-0.78
-0.53
-0.29
-0.16
-0.16
-0.24
-0.32
-0.37
-0.44
-0.59
-0.86
-1.19
-1.43
-1.43
-1.09
-0.45
0.29
0.91
1.23
1.20
0.91
0.55
0.30
0.27
0.42
0.65
0.83
0.86
0.72
0.46
0.14
-0.19
-0.48
-0.73
-0.89
-0.93
-0.83
-0.61
-0.31
0.00
0.28
0.49
0.61
0.63
0.55
0.35
0.09
-0.17
-0.33
-0.30
-0.06
0.33
0.77
1.12
1.27
1.23
1.03
0.80
0.63
0.58
0.63
0.72
0.75
0.68
0.55
0.42
0.33
0.31
0.32
0.30
0.20
-0.02
-0.36
-0.74
-1.16
-1.56
-1.89
-2.10
-2.11
-1.89
-1.43
-0.81
-0.14
0.47
0.93
1.23
1.37
1.41
1.46
1.67
2.15
2.90
3.71
4.25
4.24
3.55
2.36
1.06
0.00
-0.66
-1.01
-1.32
-1.81
-2.51
-3.24
-3.78
-4.02
-3.97
-3.72
-3.29
-2.56
-1.49
-0.14
1.08
1.63
1.16
-0.31
-2.25
-3.88
-4.58
-4.22
-3.15
-1.91
-0.87
-0.00
0.97
2.24
3.68
4.76
4.93
4.01
2.29
0.45
-0.84
-1.27
-0.98
-0.39
0.03
0.12
0.03
0.06
0.41
1.02
1.62
2.01
2.09
1.86
1.50
1.16
0.82
0.38
-0.32
-1.24
-2.17
-2.79
-3.01
-2.95
-2.86
-3.05
-3.66
-4.60
-5.49
-5.99
-5.56
-4.40
-3.32
-3.01
-3.39
-3.72
-3.29
-2.04
-0.45
0.73
0.96
0.37
-0.37
-0.59
-0.04
0.88
1.50
1.53
1.11
0.78
0.95
1.72
2.72
3.50
3.74
3.43
2.96
2.64
2.63
2.73
2.70
2.37
1.87
1.48
1.39
1.64
1.98
2.18
2.08
1.68
1.18
0.67
0.24
-0.11
-0.26
-0.18
0.27
0.99
1.65
1.89
1.39
0.20
-1.29
-2.46
-2.82
-2.18
-0.85
0.65
1.74
2.19
2.07
1.66
1.29
0.84
0.20
-0.81
-2.19
-3.54
-4.40
-4.44
-4.02
-3.90
-4.61
-6.00
-7.05
-6.54
-3.62
1.13
6.13
9.33
9.50
6.86
3.02
-0.11
-1.33
-0.83
0.26
0.64
-0.18
-1.47
-2.05
-1.13
1.01
3.32
4.75
4.58
3.12
1.12
-0.55
-1.37
-1.33
-0.76
-0.06
0.44
0.62
0.52
0.24
-0.12
-0.42
-0.65
-0.79
-0.82
-0.72
-0.50
-0.13
0.36
0.93
1.47
1.86
2.00
1.82
1.35
0.63
-0.07
-0.46
-0.36
0.26
1.20
2.15
2.82
3.04
2.78
2.15
1.45
0.77
0.27
-0.01
-0.06
0.14
0.70
1.62
2.64
3.21
2.49
-0.06
-4.20
-8.78
-12.13
-12.98
-10.99
-6.98
-2.24
1.97
5.00
6.91
8.03
8.54
8.13
6.21
2.60
-2.13
-6.86
-10.38
-11.83
-11.11
-8.76
-5.41
-2.37
-0.81
-0.61
-0.65
0.21
2.11
4.19
5.43
5.26
4.00
2.49
1.64
1.60
1.80
1.69
0.99
-0.02
-0.88
-1.32
-1.37
-1.22
-1.08
-0.99
-0.60
0.15
0.98
1.23
0.49
-1.01
-2.40
-2.95
-2.57
-1.67
-1.09
-1.15
-1.71
-2.16
-1.93
-0.87
0.57
1.73
2.34
2.42
2.43
2.76
3.36
3.77
3.42
2.06
-0.01
-2.01
-3.21
-3.25
-2.30
-0.99
0.07
0.56
0.63
0.65
0.88
1.25
1.48
1.24
0.38
-0.81
-1.95
-2.52
-2.29
-1.36
-0.18
0.78
1.20
1.08
0.72
0.47
0.55
0.89
1.21
1.18
0.62
-0.34
-1.27
-1.64
-1.04
0.40
2.08
3.32
3.51
2.55
0.92
-0.68
-1.81
-2.36
-2.55
-2.52
-2.12
-0.88
1.44
4.54
7.49
9.11
8.68
6.35
3.07
0.05
-1.97
-2.98
-3.53
-4.19
-5.09
-5.86
-5.98
-5.12
-3.43
-1.47
0.18
1.05
0.89
-0.08
-1.45
-2.72
-3.49
-3.47
-2.58
-1.03
0.72
2.05
2.43
1.68
0.13
-1.56
-2.65
-2.71
-1.72
-0.04
1.81
3.39
4.43
4.93
5.06
5.05
4.98
4.79
4.23
3.07
1.18
-1.28
-3.79
-5.73
-6.60
-6.41
-5.55
-4.58
-3.84
-3.35
-2.88
-2.16
-1.11
0.08
1.02
1.43
1.35
1.10
1.09
1.55
2.53
3.86
5.21
6.26
6.55
5.90
4.53
3.23
2.32
1.85
1.63
1.50
1.30
0.94
0.51
0.14
-0.07
-0.12
-0.08
-0.06
-0.18
-0.51
-1.01
-1.48
-1.72
-1.61
-1.25
-0.87
-0.76
-1.11
-1.90
-2.85
-3.54
-3.63
-3.00
-1.94
-0.87
-0.25
-0.28
-0.91
-1.89
-2.89
-3.64
-3.99
-3.94
-3.51
-2.80
-2.01
-1.36
-1.11
-1.41
-2.20
-3.14
-3.72
-3.42
-2.03
0.21
2.67
4.58
5.38
4.95
3.68
2.23
1.21
0.86
1.04
1.40
1.59
1.54
1.40
1.43
1.71
2.13
2.38
2.18
1.50
0.59
-0.12
-0.31
0.02
0.60
1.09
1.24
1.07
0.79
0.67
0.89
1.42
2.03
2.41
2.33
1.70
0.64
-0.58
-1.70
-2.49
-2.88
-2.91
-2.71
-2.47
-2.43
-2.67
-3.17
-3.69
-3.95
-3.75
-3.04
-1.98
-0.75
0.38
1.30
2.10
2.97
3.90
4.65
4.92
4.61
3.84
2.91
2.08
1.43
0.89
0.32
-0.32
-0.89
-1.22
-1.19
-0.88
-0.45
-0.08
0.10
0.08
-0.05
-0.16
-0.20
-0.17
-0.12
-0.12
-0.16
-0.20
-0.20
-0.12
-0.02
0.04
0.01
-0.10
-0.25
-0.34
-0.32
-0.18
0.02
0.17
0.22
0.14
-0.02
-0.22
-0.38
-0.49
-0.53
-0.53
-0.49
-0.44
-0.38
-0.33
-0.34
-0.40
-0.52
-0.63
-0.70
-0.67
-0.56
-0.41
-0.30
-0.28
-0.36
-0.49
-0.60
-0.61
-0.50
-0.28
-0.02
0.18
0.26
0.18
-0.03
-0.28
-0.50
-0.59
-0.49
-0.19
0.28
0.82
1.36
1.79
2.05
2.09
1.91
1.55
1.11
0.68
0.38
0.25
0.29
0.44
0.62
0.76
0.83
0.80
0.71
0.57
0.40
0.23
0.09
0.00
-0.00
0.05
0.13
0.19
0.20
0.14
0.04
-0.06
-0.11
-0.08
0.04
0.18
0.27
0.23
0.06
-0.17
-0.35
-0.36
-0.19
0.08
0.30
0.34
0.14
-0.24
-0.66
-1.01
-1.20
-1.24
-1.18
-1.07
-0.95
-0.85
-0.80
-0.82
-0.92
-1.11
-1.36
-1.62
-1.82
-1.91
-1.83
-1.56
-1.14
-0.63
-0.15
0.20
0.41
0.52
0.64
0.84
1.11
1.34
1.40
1.18
0.66
-0.04
-0.77
-1.33
-1.60
-1.50
-1.09
-0.47
0.21
0.76
1.06
1.03
0.71
0.17
-0.44
-0.96
-1.27
-1.26
-0.91
-0.28
0.45
1.05
1.30
1.14
0.63
0.03
-0.44
-0.64
-0.61
-0.49
-0.45
-0.59
-0.89
-1.23
-1.51
-1.63
-1.57
-1.32
-0.94
-0.47
0.01
0.42
0.69
0.80
0.77
0.69
0.68
0.82
1.17
1.67
2.20
2.55
2.57
2.20
1.52
0.73
0.05
-0.31
-0.31
0.02
0.55
1.13
1.68
2.16
2.58
2.93
3.16
3.20
2.98
2.48
1.83
1.29
1.07
1.34
2.02
2.88
3.63
4.11
4.31
4.29
4.10
3.61
2.68
1.22
-0.56
-2.22
-3.23
-3.38
-2.79
-1.87
-1.05
-0.56
-0.40
-0.42
-0.52
-0.86
-1.74
-3.36
-5.50
-7.50
-8.63
-8.49
-7.21
-5.42
-3.96
-3.48
-4.09
-5.25
-6.23
-6.50
-6.02
-5.10
-4.14
-2.74
-0.66
1.60
2.97
2.60
0.54
-2.32
-4.49
-4.79
-2.91
0.31
3.34
4.93
4.68
3.21
1.57
0.72
0.98
2.00
3.05
3.47
3.13
2.28
1.44
0.98
0.97
1.33
1.72
1.83
1.53
0.88
0.10
-0.51
-0.69
-0.40
0.32
1.14
1.65
1.46
0.51
-0.89
-2.26
-2.91
-2.48
-1.00
1.02
2.86
3.83
3.56
2.11
-0.11
-2.41
-4.17
-4.94
-4.59
-3.26
-1.24
1.06
3.20
4.81
5.66
5.56
4.70
3.50
2.38
1.63
1.30
1.23
1.07
0.65
0.02
-0.65
-1.01
-1.05
-0.92
-0.81
-0.84
-0.95
-1.04
-1.10
-1.16
-1.27
-1.40
-1.37
-0.96
-0.13
0.88
1.69
1.94
1.57
0.84
0.15
-0.15
-0.08
0.12
0.19
0.01
-0.32
-0.54
-0.48
-0.14
0.32
0.72
0.84
0.63
0.16
-0.43
-0.95
-1.24
-1.21
-0.85
-0.25
0.43
1.00
1.33
1.34
1.08
0.69
0.33
0.14
0.11
0.17
0.22
0.17
0.02
-0.15
-0.26
-0.26
-0.19
-0.11
-0.05
-0.02
0.01
0.02
-0.00
-0.08
-0.23
-0.38
-0.41
-0.23
0.16
0.60
0.84
0.71
0.18
-0.54
-1.12
-1.26
-0.89
-0.24
0.44
0.74
0.50
-0.14
-1.00
-1.83
-2.30
-2.18
-1.09
0.98
3.56
5.73
6.49
5.15
1.86
-2.40
-6.16
-8.10
-7.67
-5.29
-2.07
0.76
2.33
2.57
2.03
1.46
1.40
1.83
2.36
2.44
1.74
0.16
-1.65
-2.98
-3.16
-2.14
-0.39
1.49
2.76
3.11
2.44
1.07
-0.63
-2.30
-3.55
-3.94
-2.85
0.22
5.49
11.47
15.56
15.36
10.20
1.71
-6.93
-12.58
-13.87
-11.59
-8.10
-5.53
-4.55
-4.33
-3.46
-1.20
1.99
4.63
5.46
4.02
1.04
-1.79
-3.27
-2.86
-1.15
0.79
1.93
1.87
0.89
-0.38
-1.23
-1.37
-0.89
-0.23
0.26
0.43
0.42
0.36
0.33
0.30
0.15
-0.05
-0.14
0.06
0.54
1.07
1.28
0.90
0.01
-0.99
-1.60
-1.53
-0.89
-0.06
0.67
1.13
1.46
1.83
2.24
2.45
2.19
1.36
0.22
-0.72
-1.07
-0.74
-0.02
0.64
0.92
0.84
0.68
0.71
1.03
1.43
1.55
1.17
0.30
-0.83
-1.82
-2.40
-2.50
-2.26
-1.91
-1.60
-1.38
-1.19
-0.94
-0.65
-0.43
-0.41
-0.64
-1.07
-1.55
-1.86
-1.85
-1.42
-0.69
0.07
0.58
0.60
0.06
-1.01
-2.41
-3.77
-4.59
-4.49
-3.36
-1.49
0.54
2.03
2.37
1.30
-0.86
-3.11
-4.25
-3.72
-2.09
-0.42
0.44
0.19
-0.80
-1.89
-2.39
-1.89
-0.67
0.79
1.80
1.98
1.31
0.13
-1.04
-1.73
-1.51
-0.02
3.03
7.56
12.87
17.47
19.70
18.43
13.77
7.19
0.71
-4.00
-6.40
-7.01
-6.80
-6.24
-5.04
-2.56
1.44
6.17
10.05
11.41
9.45
4.76
-1.05
-5.83
-8.13
-7.49
-4.72
-1.31
1.18
1.73
0.27
-2.40
-5.06
-6.76
-7.12
-6.45
-5.34
-4.24
-3.21
-1.81
0.36
3.17
5.54
5.91
3.51
-0.83
-5.15
-7.50
-7.08
-4.72
-1.86
0.18
0.89
0.62
0.21
0.45
1.50
3.10
4.63
5.48
5.29
3.96
1.66
-1.03
-3.21
-3.83
-2.55
0.38
4.07
7.31
9.05
8.64
6.27
2.59
-0.86
-2.69
-2.67
-1.83
-1.35
-1.70
-2.39
-2.67
-2.17
-1.21
-0.55
-0.71
-1.57
-2.46
-2.84
-2.38
-1.34
-0.20
0.60
0.84
0.59
0.09
-0.34
-0.53
-0.53
-0.51
-0.61
-0.76
-0.83
-0.75
-0.55
-0.36
-0.26
-0.32
-0.45
-0.54
-0.48
-0.29
-0.08
0.05
0.06
0.00
-0.04
-0.00
0.10
0.22
0.29
0.23
0.05
-0.18
-0.35
-0.40
-0.34
-0.21
-0.04
0.14
0.31
0.45
0.52
0.48
0.31
0.02
-0.34
-0.68
-0.90
-0.94
-0.75
-0.37
0.11
0.55
0.81
0.84
0.67
0.44
0.28
0.32
0.54
0.86
1.14
1.29
1.24
1.00
0.63
0.21
-0.20
-0.57
-0.88
-1.11
-1.26
-1.32
-1.32
-1.24
-1.09
-0.87
-0.61
-0.32
0.02
0.46
0.99
1.55
2.09
2.53
2.78
2.81
2.43
1.68
0.82
0.15
-0.23
-0.35
-0.33
-0.29
-0.35
-0.54
-0.79
-1.02
-1.12
-1.06
-0.87
-0.60
-0.32
-0.10
0.01
0.05
0.05
0.06
0.05
0.02
-0.04
-0.11
-0.13
-0.06
0.13
0.45
0.84
1.22
1.54
1.78
1.98
2.21
2.55
3.01
3.53
4.01
4.32
4.37
4.15
3.73
3.22
2.72
2.33
2.05
1.86
1.68
1.40
0.96
0.35
-0.38
-1.22
-2.15
-3.13
-4.09
-4.93
-5.55
-5.86
-5.86
-5.57
-5.13
-4.73
-4.52
-4.53
-4.76
-5.18
-5.61
-5.98
-6.12
-5.99
-5.60
-5.06
-4.55
-3.85
-3.15
-2.82
-3.11
-3.75
-4.12
-3.63
-2.11
0.17
2.66
4.77
6.17
6.75
6.51
5.42
3.60
1.44
-0.46
-1.43
-1.25
-0.19
1.12
2.10
2.39
2.12
1.81
1.76
2.06
2.44
2.55
2.16
1.40
0.57
-0.06
-0.27
-0.07
0.32
0.64
0.70
0.49
0.18
-0.04
-0.02
0.21
0.45
0.54
0.43
0.28
0.39
0.96
1.99
3.24
4.38
5.11
5.29
4.92
4.03
2.69
1.01
-0.77
-2.27
-3.17
-3.37
-2.98
-2.21
-1.39
-0.85
-0.72
-0.94
-1.24
-1.33
-1.05
-0.38
0.50
1.22
1.45
0.90
-0.54
-2.34
-3.75
-4.24
-3.73
-2.55
-1.31
-0.64
-1.05
-2.66
-4.96
-6.99
-7.73
-6.52
-3.42
0.67
4.48
6.67
6.68
4.82
2.13
-0.19
-1.34
-1.17
-0.05
1.56
3.27
4.78
5.84
6.18
5.54
3.80
0.87
-2.91
-6.68
-9.40
-10.05
-8.07
-3.65
2.21
8.04
12.12
13.15
10.98
6.81
2.38
-0.97
-2.86
-3.41
-3.11
-2.33
-1.39
-0.54
0.00
0.06
-0.32
-0.88
-1.24
-1.16
-0.64
0.08
0.70
1.00
0.90
0.43
-0.25
-0.82
-1.04
-0.73
-0.03
0.81
1.37
1.38
0.86
0.14
-0.36
-0.46
-0.25
-0.00
0.01
-0.24
-0.57
-0.71
-0.51
-0.01
0.52
0.78
0.65
0.17
-0.37
-0.75
-0.82
-0.64
-0.37
-0.21
-0.21
-0.34
-0.47
-0.46
-0.28
0.04
0.38
0.61
0.66
0.52
0.27
-0.01
-0.21
-0.30
-0.27
-0.16
-0.03
0.07
0.13
0.12
0.06
-0.03
-0.11
-0.11
-0.00
0.21
0.48
0.71
0.80
0.67
0.31
-0.20
-0.74
-1.16
-1.38
-1.35
-1.12
-0.75
-0.36
-0.05
0.10
0.09
-0.03
-0.17
-0.25
-0.21
-0.07
0.12
0.31
0.47
0.57
0.63
0.63
0.55
0.37
0.13
-0.12
-0.26
-0.21
0.01
0.33
0.55
0.52
0.25
-0.11
-0.35
-0.37
-0.18
0.06
0.21
0.24
0.15
0.12
0.18
0.28
0.32
0.29
0.30
0.54
0.91
1.03
0.58
-0.44
-1.55
-2.10
-1.69
-0.47
0.91
1.66
1.37
0.35
-0.70
-1.14
-0.75
0.17
1.12
1.73
1.86
1.56
0.98
0.15
-1.01
-2.53
-4.35
-6.17
-7.20
-7.05
-5.92
-4.39
-2.87
-1.32
0.54
2.81
5.16
6.75
6.74
4.90
1.82
-1.39
-3.67
-4.46
-3.92
-2.66
-1.36
-0.54
-0.22
-0.11
0.14
0.73
1.60
2.39
2.65
2.11
0.86
-0.59
-1.45
-1.15
0.25
2.03
3.26
3.32
2.32
0.88
-0.26
-0.72
-0.61
-0.30
-0.09
0.01
0.16
0.55
1.13
1.68
2.01
1.97
1.62
1.12
0.58
0.07
-0.31
-0.48
-0.35
0.04
0.55
0.96
1.03
0.70
0.11
-0.48
-0.78
-0.64
-0.11
0.58
1.12
1.26
0.86
-0.01
-1.16
-2.27
-3.03
-3.26
-3.01
-2.48
-1.85
-1.18
-0.37
0.62
1.78
2.91
3.69
3.78
3.04
1.58
-0.30
-2.12
-3.49
-4.09
-3.86
-2.95
-1.74
-0.59
0.19
0.48
0.37
-0.02
-0.49
-0.94
-1.27
-1.37
-1.18
-0.68
0.01
0.71
1.17
1.30
1.13
0.93
0.98
1.40
2.06
2.46
2.32
1.30
-0.38
-2.17
-3.36
-3.38
-2.05
0.48
3.68
6.82
8.96
9.29
7.38
3.47
-1.43
-5.84
-8.37
-8.38
-6.18
-2.88
0.25
2.25
2.88
2.48
1.53
0.40
-0.79
-1.99
-3.07
-3.61
-3.40
-2.54
-1.19
0.15
1.06
1.33
1.01
0.32
-0.44
-1.07
-1.46
-1.56
-1.47
-1.30
-1.11
-0.94
-0.87
-0.93
-1.13
-1.27
-1.08
-0.30
1.18
3.15
5.09
6.32
6.38
5.06
2.99
1.16
0.36
0.72
1.67
2.39
2.34
1.51
0.33
-0.66
-1.22
-1.54
-2.00
-2.83
-3.80
-4.37
-4.14
-3.07
-1.56
-0.21
0.46
0.42
-0.10
-0.71
-1.16
-1.40
-1.45
-1.35
-1.05
-0.57
0.07
0.68
1.06
1.04
0.60
-0.12
-0.85
-1.37
-1.57
-1.52
-1.38
-1.28
-1.33
-1.50
-1.62
-1.46
-0.85
0.22
1.53
2.70
3.38
3.55
3.42
3.34
3.42
3.50
3.31
2.68
1.72
0.74
0.08
-0.16
-0.04
0.20
0.42
0.62
0.86
1.19
1.54
1.71
1.46
0.60
-0.76
-2.26
-3.31
-3.50
-2.73
-1.36
-0.07
0.52
0.20
-0.74
-1.59
-1.72
-0.91
0.56
2.10
3.14
3.38
2.75
1.41
-0.34
-2.05
-3.25
-3.54
-2.89
-1.62
-0.26
0.72
1.17
1.26
1.27
1.31
1.21
0.72
-0.33
-1.72
-2.99
-3.64
-3.35
-2.15
-0.32
1.70
3.46
4.54
4.64
3.66
1.82
-0.34
-2.13
-2.99
-2.74
-1.52
0.15
1.60
2.31
2.16
1.38
0.39
-0.42
-0.87
-1.01
-1.00
-1.02
-1.11
-1.20
-1.15
-0.92
-0.53
-0.11
0.11
-0.04
-0.54
-1.24
-1.90
-2.31
-2.41
-2.30
-2.15
-2.12
-2.25
-2.45
-2.61
-2.63
-2.49
-2.21
-1.82
-1.34
-0.74
-0.03
0.68
1.20
1.38
1.17
0.66
0.07
-0.36
-0.44
-0.16
0.33
0.78
1.00
0.88
0.43
-0.28
-1.08
-1.74
-2.00
-1.63
-0.53
1.19
3.12
4.61
4.99
4.03
2.09
0.03
-1.17
-0.95
0.63
2.97
5.25
6.79
7.26
6.83
5.86
4.53
2.77
0.64
-1.38
-2.70
-2.95
-2.30
-1.30
-0.44
0.04
0.21
0.32
0.49
0.58
0.37
-0.09
-0.42
-0.14
0.90
2.36
3.69
4.31
3.84
2.31
0.03
-2.56
-5.09
-7.24
-8.67
-8.98
-7.67
-4.97
-2.04
-0.39
-0.62
-2.06
-3.17
-2.88
-0.96
1.86
4.29
5.23
4.26
1.69
-1.47
-4.11
-5.33
-4.74
-2.64
0.03
2.21
3.19
2.85
1.61
0.16
-0.79
-0.78
0.22
1.77
3.20
3.81
3.20
1.40
-1.09
-3.50
-5.03
-5.20
-4.14
-2.33
-0.41
1.13
2.18
2.67
2.77
2.89
3.30
3.74
3.65
2.64
0.88
-0.93
-2.05
-1.99
-0.86
0.76
2.07
2.57
2.26
1.56
0.99
0.88
1.25
1.84
2.18
1.90
1.03
-0.18
-1.19
-1.63
-1.34
-0.48
0.64
1.65
2.13
1.77
0.51
-1.50
-3.70
-5.33
-5.66
-4.43
-2.03
0.56
2.26
2.42
1.19
-0.60
-1.96
-2.31
-1.78
-0.96
-0.47
-0.49
-0.75
-0.79
-0.34
0.47
1.28
1.55
1.11
0.07
-1.06
-1.82
-1.92
-1.39
-0.55
0.21
0.61
0.61
0.35
0.05
-0.12
-0.09
0.08
0.30
0.48
0.53
0.47
0.34
0.20
0.12
0.11
0.15
0.21
0.24
0.24
0.20
0.16
0.12
0.11
0.11
0.12
0.11
0.09
0.07
0.05
0.05
0.06
0.07
0.08
0.07
0.06
0.03
0.01
0.00
0.01
0.02
0.02
0.03
0.03
0.02
0.01
0.01
0.00
0.00
0.00
0.00
0.00
0.00
0.00
0.00
-0.00
-0.00
-0.00
-0.00
-0.00
-0.00
-0.00
-0.00
-0.00
-0.00
-0.00
-0.00
-0.00
-0.00
-0.00
-0.00
-0.00
-0.00
-0.00
-0.00
-0.00
-0.00
-0.00
-0.00
-0.00
-0.00
-0.00
-0.00
-0.00
-0.00
-0.00
-0.00
-0.00
-0.00
-0.00
-0.00
-0.00
-0.00
-0.00
-0.00
-0.00
-0.00
-0.00
-0.00
-0.00
-0.00
-0.00
-0.00
-0.00
-0.00
-0.00
-0.00
-0.00
-0.00
-0.00
-0.00
-0.00
-0.00
-0.00
-0.00
-0.00
-0.00
-0.00
-0.00
-0.00
-0.00
-0.00
-0.00
-0.00
-0.00
-0.00
-0.00
-0.00
-0.00
-0.00
-0.00
-0.00
-0.00
-0.00
-0.00
-0.00
-0.00
-0.00
-0.00
-0.00
-0.00
-0.00
-0.00
-0.00
-0.00
-0.00
-0.00
-0.00
-0.00
-0.00
-0.00
-0.00
-0.00
-0.00
-0.00
-0.00
-0.00
-0.00
-0.00
-0.00
-0.00
-0.00
-0.00
-0.00
-0.00
-0.00
-0.00
-0.00
0.00
0.00
0.00
0.00
0.00
0.00
0.00
0.00
-0.00
-0.00
-0.00
-0.00
-0.00
-0.00
-0.00
-0.00
-0.00
-0.00
-0.01
-0.01
-0.01
-0.00
-0.00
0.01
0.01
0.01
0.01
0.00
-0.00
0.00
0.01
0.02
0.02
0.03
0.02
0.01
-0.01
-0.02
-0.02
-0.00
0.01
0.03
0.04
0.03
0.01
-0.02
-0.03
-0.02
0.01
0.05
0.08
0.09
0.06
0.01
-0.03
-0.05
-0.02
0.06
0.16
0.24
0.25
0.19
0.07
-0.03
-0.07
-0.01
0.15
0.35
0.48
0.49
0.37
0.17
0.05
0.11
0.40
0.85
1.28
1.52
1.49
1.29
1.11
1.07
1.06
0.84
0.28
-0.46
-1.08
-1.35
-1.26
-1.03
-0.98
-1.28
-1.87
-2.44
-2.69
-2.46
-1.80
-0.89
0.02
0.71
1.06
1.03
0.76
0.35
-0.02
-0.29
-0.51
-0.82
-1.24
-1.56
-1.36
-0.35
1.32
3.00
3.78
3.02
0.86
-1.76
-3.60
-3.81
-2.41
-0.33
1.31
1.73
0.90
-0.44
-1.39
-1.38
-0.43
0.91
1.97
2.35
1.99
1.14
0.28
-0.28
-0.42
-0.26
-0.00
0.12
-0.00
-0.34
-0.70
-0.86
-0.72
-0.37
-0.03
0.06
-0.20
-0.71
-1.24
-1.56
-1.50
-1.12
-0.58
-0.07
0.26
0.36
0.31
0.20
0.14
0.18
0.33
0.53
0.69
0.74
0.65
0.43
0.14
-0.12
-0.29
-0.33
-0.29
-0.24
-0.24
-0.30
-0.36
-0.34
-0.19
0.05
0.31
0.53
0.69
0.82
0.95
1.11
1.21
1.19
1.04
0.82
0.66
0.70
0.94
1.27
1.51
1.49
1.15
0.57
-0.07
-0.64
-1.03
-1.23
-1.26
-1.15
-0.92
-0.61
-0.31
-0.11
-0.10
-0.28
-0.56
-0.78
-0.80
-0.53
-0.06
0.47
0.84
0.92
0.67
0.18
-0.42
-0.99
-1.40
-1.61
-1.60
-1.42
-1.11
-0.78
-0.51
-0.37
-0.39
-0.57
-0.88
-1.28
-1.76
-2.25
-2.61
-2.72
-2.54
-2.16
-1.79
-1.61
-1.71
-2.00
-2.21
-2.14
-1.74
-1.20
-0.80
-0.73
-0.87
-0.88
-0.42
0.69
2.28
3.95
5.28
6.08
6.50
6.88
7.50
8.10
8.16
7.18
5.21
2.90
1.07
0.14
0.00
-0.00
-0.45
-1.54
-3.02
-4.32
-4.93
-4.61
-3.41
-1.63
0.29
1.86
2.59
2.29
1.26
0.19
-0.29
0.04
0.91
1.77
2.14
1.88
1.26
0.66
0.36
0.34
0.33
0.08
-0.48
-1.18
-1.77
-1.99
-1.73
-1.15
-0.43
0.10
0.28
0.08
-0.34
-0.82
-1.21
-1.43
-1.48
-1.34
-1.03
-0.63
-0.33
-0.38
-0.94
-1.95
-3.03
-3.65
-3.40
-2.18
-0.27
1.67
2.85
2.75
1.35
-0.75
-2.59
-3.34
-2.69
-0.98
0.99
2.41
2.88
2.53
1.76
1.20
1.16
1.52
1.89
1.95
1.61
1.06
0.63
0.49
0.66
0.96
1.12
0.89
0.20
-0.81
-1.76
-2.23
-1.97
-0.98
0.20
0.98
0.99
0.26
-0.73
-1.49
-1.71
-1.49
-1.14
-1.03
-1.24
-1.55
-1.56
-1.02
0.02
1.21
2.05
2.20
1.62
0.55
-0.55
-1.27
-1.49
-1.33
-1.08
-0.95
-1.01
-1.13
-1.12
-0.86
-0.39
0.13
0.48
0.52
0.29
-0.13
-0.52
-0.73
-0.69
-0.44
-0.11
0.18
0.35
0.38
0.35
0.31
0.33
0.43
0.61
0.80
0.93
0.93
0.78
0.52
0.23
0.04
0.02
0.15
0.34
0.47
0.46
0.34
0.17
0.03
-0.03
0.00
0.11
0.22
0.28
0.18
-0.12
-0.65
-1.33
-2.02
-2.54
-2.71
-2.53
-2.09
-1.63
-1.38
-1.51
-2.04
-2.86
-3.66
-4.08
-3.80
-2.63
-0.57
2.18
5.23
7.90
9.36
8.99
6.84
3.68
0.59
-1.54
-2.30
-1.84
-0.67
0.63
1.69
2.41
2.85
3.06
2.99
2.54
1.73
0.67
-0.42
-1.21
-1.54
-1.38
-0.83
-0.15
0.38
0.59
0.37
-0.15
-0.73
-1.07
-1.03
-0.66
-0.25
-0.06
-0.25
-0.70
-1.15
-1.31
-1.08
-0.61
-0.16
0.05
-0.04
-0.34
-0.72
-1.01
-1.16
-1.13
-0.92
-0.60
-0.30
-0.09
-0.12
-0.41
-0.90
-1.44
-1.82
-1.90
-1.62
-1.12
-0.63
-0.40
-0.53
-0.87
-1.24
-1.28
-0.91
-0.25
0.36
0.69
0.61
0.03
-1.12
-2.86
-4.98
-6.88
-7.70
-6.66
-3.61
0.85
5.46
8.92
10.40
9.95
8.12
5.94
4.14
2.84
1.82
0.80
-0.19
-0.95
-1.22
-0.98
-0.41
0.26
0.62
0.60
0.25
-0.19
-0.52
-0.63
-0.52
-0.30
-0.10
-0.06
-0.17
-0.39
-0.62
-0.80
-0.87
-0.81
-0.62
-0.36
-0.12
0.03
0.06
-0.00
-0.11
-0.20
-0.22
-0.20
-0.16
-0.14
-0.16
-0.21
-0.26
-0.29
-0.27
-0.22
-0.14
-0.05
0.03
0.11
0.17
0.19
0.18
0.12
0.06
0.03
0.06
0.16
0.30
0.43
0.51
0.51
0.43
0.30
0.15
0.02
-0.08
-0.12
-0.11
-0.08
-0.06
-0.06
-0.11
-0.19
-0.25
-0.27
-0.25
-0.19
-0.14
-0.10
-0.09
-0.09
-0.07
-0.02
0.07
0.16
0.23
0.24
0.19
0.11
0.02
-0.04
-0.10
-0.15
-0.23
-0.31
-0.38
-0.41
-0.35
-0.23
-0.08
0.06
0.12
0.11
0.06
-0.01
-0.05
-0.08
-0.17
-0.33
-0.57
-0.79
-0.88
-0.78
-0.46
-0.03
0.38
0.66
0.75
0.69
0.55
0.39
0.23
0.09
-0.05
-0.18
-0.30
-0.34
-0.23
0.07
0.49
0.92
1.18
1.15
0.83
0.32
-0.17
-0.52
-0.71
-0.80
-0.93
-1.14
-1.36
-1.46
-1.35
-1.06
-0.71
-0.43
-0.28
-0.25
-0.23
-0.17
-0.07
0.01
0.02
-0.01
-0.02
0.07
0.26
0.48
0.66
0.74
0.73
0.69
0.68
0.73
0.82
0.90
0.94
0.93
0.89
0.81
0.72
0.62
0.54
0.50
0.50
0.53
0.55
0.52
0.43
0.26
0.05
-0.13
-0.24
-0.25
-0.16
-0.04
0.05
0.06
-0.04
-0.21
-0.37
-0.48
-0.48
-0.37
-0.22
-0.10
-0.05
-0.09
-0.19
-0.26
-0.26
-0.15
0.01
0.18
0.30
0.37
0.42
0.45
0.49
0.49
0.43
0.30
0.13
-0.01
-0.08
-0.09
-0.13
-0.27
-0.56
-0.95
-1.32
-1.53
-1.50
-1.21
-0.77
-0.31
0.04
0.21
0.20
0.07
-0.09
-0.21
-0.23
-0.18
-0.09
-0.02
0.00
-0.01
-0.04
-0.04
-0.04
-0.09
-0.24
-0.49
-0.77
-0.96
-0.94
-0.69
-0.27
0.16
0.46
0.57
0.49
0.34
0.20
0.15
0.21
0.35
0.50
0.61
0.65
0.61
0.51
0.40
0.30
0.24
0.19
0.17
0.18
0.25
0.38
0.55
0.68
0.69
0.55
0.32
0.08
-0.09
-0.16
-0.19
-0.25
-0.35
-0.46
-0.50
-0.41
-0.22
-0.01
0.09
0.03
-0.19
-0.49
-0.78
-0.98
-1.08
-1.10
-1.04
-0.94
-0.78
-0.60
-0.41
-0.24
-0.11
-0.01
0.06
0.14
0.24
0.39
0.60
0.84
1.07
1.24
1.30
1.26
1.12
0.94
0.75
0.57
0.41
0.26
0.09
-0.11
-0.34
-0.60
-0.84
-1.04
-1.13
-1.10
-0.93
-0.68
-0.39
-0.13
0.05
0.13
0.14
0.08
-0.02
-0.12
-0.18
-0.16
-0.05
0.13
0.36
0.54
0.64
0.61
0.47
0.26
0.05
-0.10
-0.12
0.03
0.32
0.69
1.02
1.23
1.26
1.13
0.86
0.52
0.13
-0.25
-0.57
-0.78
-0.83
-0.77
-0.67
-0.61
-0.60
-0.58
-0.44
-0.13
0.32
0.73
0.94
0.85
0.50
0.07
-0.20
-0.20
0.09
0.51
0.88
1.05
0.92
0.58
0.11
-0.32
-0.60
-0.69
-0.61
-0.46
-0.32
-0.30
-0.42
-0.68
-1.01
-1.33
-1.55
-1.60
-1.42
-1.04
-0.53
-0.01
0.39
0.57
0.51
0.24
-0.12
-0.49
-0.78
-0.95
-0.98
-0.88
-0.66
-0.36
-0.05
0.20
0.32
0.25
0.02
-0.31
-0.64
-0.88
-0.99
-0.96
-0.85
-0.73
-0.63
-0.57
-0.50
-0.37
-0.13
0.23
0.63
0.96
1.10
1.03
0.80
0.51
0.33
0.33
0.53
0.83
1.13
1.30
1.29
1.10
0.80
0.43
0.04
-0.32
-0.62
-0.79
-0.82
-0.77
-0.72
-0.78
-0.99
-1.25
-1.36
-1.16
-0.56
0.33
1.25
1.94
2.21
2.09
1.69
1.23
0.89
0.75
0.81
1.00
1.21
1.35
1.37
1.25
1.02
0.70
0.34
-0.03
-0.37
-0.63
-0.79
-0.85
-0.86
-0.87
-0.93
-1.01
-1.03
-0.97
-0.88
-0.84
-0.95
-1.21
-1.55
-1.82
-1.95
-1.91
-1.78
-1.64
-1.53
-1.39
-1.11
-0.66
-0.07
0.54
1.01
1.25
1.26
1.16
1.07
1.10
1.27
1.51
1.69
1.72
1.57
1.29
1.00
0.79
0.72
0.76
0.83
0.86
0.81
0.68
0.50
0.30
0.12
-0.02
-0.08
-0.01
0.17
0.42
0.62
0.62
0.31
-0.33
-1.16
-1.96
-2.46
-2.42
-1.77
-0.63
0.66
1.67
2.02
1.57
0.49
-0.80
-1.85
-2.35
-2.31
-1.95
-1.57
-1.35
-1.27
-1.17
-0.87
-0.32
0.35
0.97
1.35
1.44
1.26
0.95
0.62
0.41
0.36
0.44
0.58
0.65
0.58
0.35
0.04
-0.24
-0.35
-0.23
0.08
0.46
0.80
1.04
1.18
1.25
1.21
1.01
0.61
-0.00
-0.71
-1.33
-1.71
-1.81
-1.73
-1.64
-1.63
-1.70
-1.78
-1.80
-1.78
-1.80
-1.94
-2.23
-2.61
-2.93
-3.06
-2.99
-2.84
-2.71
-2.64
-2.43
-1.85
-0.87
0.30
1.53
2.67
3.52
3.94
3.90
3.53
2.99
2.46
2.04
1.82
1.78
1.85
1.98
2.13
2.26
2.35
2.39
2.39
2.38
2.38
2.37
2.32
2.22
2.08
1.90
1.70
1.50
1.32
1.20
1.15
1.19
1.33
1.53
1.73
1.84
1.83
1.70
1.49
1.31
1.25
1.35
1.60
1.89
2.11
2.18
2.06
1.81
1.48
1.09
0.60
-0.03
-0.84
-1.77
-2.70
-3.46
-3.96
-4.15
-4.14
-4.05
-4.01
-4.11
-4.36
-4.69
-5.00
-5.17
-5.12
-4.84
-4.36
-3.70
-2.90
-2.06
-1.34
-0.96
-1.08
-1.69
-2.58
-3.38
-3.73
-3.47
-2.72
-1.76
-0.87
-0.17
0.37
0.84
1.29
1.67
1.98
2.13
2.05
1.75
1.27
0.68
0.07
-0.48
-0.88
-1.03
-0.95
-0.69
-0.37
-0.08
0.17
0.38
0.67
1.11
1.67
2.18
2.45
2.37
1.97
1.48
1.04
0.71
0.47
0.26
0.03
-0.17
-0.18
0.13
0.79
1.61
2.32
2.67
2.58
2.17
1.71
1.42
1.38
1.44
1.37
0.99
0.34
-0.39
-0.92
-1.04
-0.75
-0.20
0.34
0.68
0.80
0.78
0.80
0.96
1.25
1.55
1.69
1.59
1.30
1.00
0.88
1.03
1.44
1.98
2.48
2.84
3.05
3.15
3.19
3.16
3.02
2.70
2.15
1.39
0.49
-0.41
-1.11
-1.47
-1.40
-0.94
-0.31
0.20
0.32
-0.03
-0.73
-1.57
-2.30
-2.75
-2.89
-2.73
-2.29
-1.53
-0.40
1.00
2.46
3.60
4.09
3.78
2.81
1.53
0.40
-0.43
-1.01
-1.57
-2.29
-3.10
-3.68
-3.70
-3.16
-2.44
-2.18
-2.88
-4.54
-6.56
-8.06
-8.32
-7.22
-5.22
-3.07
-1.36
-0.17
0.83
2.11
3.86
5.86
7.54
8.32
7.96
6.62
4.85
3.23
2.19
1.79
1.80
1.95
2.00
1.81
1.31
0.59
-0.15
-0.59
-0.57
-0.01
0.99
2.10
2.99
3.47
3.59
3.67
4.08
4.88
5.97
7.12
8.11
8.87
9.43
9.99
10.85
12.36
14.18
15.91
17.80
20.06
22.75
25.74
29.02
32.84
37.47
41.85
45.09
47.17
48.91
51.25
54.70
59.25
64.67
70.85
76.13
79.66
82.12
85.05
89.50
94.79
98.19
96.07
85.31
61.97
25.01
-22.93
-76.44
-129.82
-179.43
-224.08
-264.08
-284.29
-275.49
-239.81
-190.01
-139.54
-96.07
-62.03
-36.84
-18.44
-4.08
6.29
9.79
7.72
2.13
-5.36
-14.28
-25.03
-37.61
-51.54
-68.64
-81.58
-88.72
-90.75
-89.62
-87.83
-87.58
-89.30
-91.99
-95.59
-99.72
-104.49
-109.59
-114.84
-120.67
-128.15
-139.40
-153.40
-170.38
-189.73
-209.38
-224.50
-229.22
-219.50
-195.48
-159.45
-117.27
-76.93
-44.69
-23.08
-10.14
-1.23
8.88
18.03
29.08
44.21
63.38
85.14
107.68
129.72
150.08
167.40
180.13
193.39
211.33
234.71
261.35
288.49
314.46
338.33
359.27
376.32
396.18
423.66
458.88
497.99
536.77
572.77
604.96
632.72
614.51
532.22
398.72
248.97
114.22
8.64
-67.19
-118.69
-152.59
-175.16
-185.20
-183.48
-175.27
-168.97
-170.97
-182.65
-200.78
-220.11
-236.01
-241.17
-233.03
-214.92
-193.77
-175.44
-162.17
-153.19
-146.80
-141.93
-135.44
-125.94
-114.26
-102.52
-92.15
-83.24
-75.39
-68.58
-63.29
-58.52
-53.39
-47.57
-41.36
-35.15
-29.29
-24.16
-20.23
-17.97
-16.93
-16.54
-16.30
-15.95
-15.35
-14.40
-13.09
-11.49
-9.82
-8.17
-6.80
-5.81
-5.18
-4.74
-4.34
-3.91
-3.47
-3.16
-3.08
-3.24
-3.51
-3.67
-3.50
-2.91
-1.97
-0.86
0.26
1.31
2.30
3.29
4.30
5.27
6.00
6.26
5.87
4.82
3.32
1.69
0.30
-0.60
-0.98
-0.98
-0.85
-0.85
-1.11
-1.57
-2.10
-2.59
-3.07
-3.63
-4.39
-5.33
-6.28
-6.97
-7.08
-6.57
-5.56
-4.44
-3.56
-3.12
-3.06
-3.21
-3.26
-2.91
-1.94
-0.19
2.38
5.73
9.70
13.95
17.66
19.88
19.97
17.94
14.46
10.53
6.94
4.16
2.25
1.10
0.53
0.45
0.70
1.04
1.18
0.85
-0.01
-1.28
-2.68
-3.82
-4.37
-4.09
-3.11
-1.79
-0.68
-0.17
-0.38
-1.00
-1.56
-1.67
-1.20
-0.41
0.26
0.41
-0.21
-1.57
-3.38
-5.31
-7.01
-8.22
-8.75
-8.47
-7.50
-6.01
-4.46
-3.25
-2.43
-1.66
-0.36
1.88
4.88
7.70
8.98
7.71
3.90
-1.25
-5.84
-8.24
-7.92
-5.66
-2.95
-1.12
-0.62
-0.99
-1.43
-1.38
-0.93
-0.52
-0.52
-0.92
-1.40
-1.62
-1.47
-1.06
-0.66
-0.43
-0.33
-0.12
0.36
1.12
1.97
2.70
3.15
3.33
3.36
3.38
3.42
3.36
3.05
2.40
1.48
0.47
-0.38
-0.98
-1.41
-1.76
-1.94
-1.72
-0.82
0.83
2.92
4.85
6.02
6.15
5.35
4.15
3.03
2.19
1.51
0.74
-0.19
-1.12
-1.75
-1.87
-1.55
-1.07
-0.79
-0.84
-1.13
-1.48
-1.70
-1.72
-1.56
-1.34
-1.14
-0.98
-0.84
-0.69
-0.50
-0.28
-0.06
0.13
0.23
0.18
-0.01
-0.27
-0.47
-0.50
-0.29
0.12
0.60
0.98
1.17
1.14
0.97
0.75
0.58
0.52
0.61
0.84
1.16
1.49
1.73
1.84
1.80
1.67
1.53
1.43
1.34
1.21
1.00
0.66
0.21
-0.36
-1.02
-1.79
-2.60
-3.41
-4.08
-4.47
-4.50
-4.16
-3.54
-2.85
-2.33
-2.10
-2.16
-2.32
-2.37
-2.15
-1.63
-0.95
-0.30
0.17
0.38
0.42
0.38
0.33
0.33
0.43
0.72
1.22
1.85
2.43
2.71
2.54
1.98
1.34
0.94
0.94
1.27
1.59
1.56
1.01
0.01
-1.11
-2.00
-2.39
-2.24
-1.69
-0.98
-0.30
0.19
0.37
0.18
-0.33
-1.00
-1.45
-1.33
-0.38
1.31
3.28
4.88
5.58
5.23
4.09
2.69
1.54
0.90
0.69
0.66
0.59
0.37
0.06
-0.30
-0.72
-1.15
-1.62
-2.02
-2.26
-2.18
-1.72
-0.91
0.16
1.35
2.43
3.17
3.36
2.80
1.45
-0.60
-3.08
-5.64
-7.82
-9.32
-10.04
-9.95
-9.25
-8.34
-7.53
-6.76
-6.03
-5.13
-3.95
-2.31
-0.22
2.12
4.29
6.03
7.20
7.93
8.62
9.66
11.16
12.83
14.10
14.48
13.89
12.66
10.85
8.94
7.33
6.11
4.98
3.70
1.98
-0.13
-2.34
-4.50
-6.39
-7.97
-9.19
-9.98
-10.20
-9.75
-8.65
-7.22
-5.90
-4.95
-4.35
-3.89
-3.38
-2.84
-2.64
-3.19
-4.60
-6.39
-7.62
-7.37
-5.22
-1.62
2.37
5.61
7.38
7.68
7.07
6.20
5.45
4.89
4.50
4.27
4.31
4.65
5.17
5.60
5.66
5.07
3.84
2.19
0.41
-1.33
-3.07
-5.02
-7.27
-9.29
-10.41
-10.15
-8.54
-5.99
-3.23
-1.01
0.13
0.05
-0.73
-1.53
-1.87
-1.56
-0.87
-0.26
0.12
0.39
0.70
0.63
-0.72
-4.05
-8.92
-13.55
-15.47
-12.93
-6.23
2.34
9.53
12.88
11.99
8.49
4.88
2.95
2.94
3.83
4.39
4.04
3.12
2.46
2.68
3.67
4.90
5.63
5.24
3.83
1.93
0.23
-0.72
-0.71
0.02
0.97
1.61
1.60
0.94
-0.12
-1.18
-1.81
-1.73
-0.94
0.32
1.58
2.33
2.24
1.32
-0.08
-1.48
-2.43
-2.81
-2.81
-2.73
-2.82
-3.12
-3.56
-3.98
-4.34
-4.50
-4.38
-3.82
-2.79
-1.43
-0.03
1.15
2.04
2.65
3.09
3.35
3.31
2.88
2.08
1.21
0.62
0.54
0.91
1.45
1.80
1.85
1.74
1.63
1.62
1.66
1.60
1.38
1.10
0.87
0.75
0.78
0.79
0.72
0.51
0.22
-0.10
-0.36
-0.58
-0.79
-1.08
-1.53
-2.14
-2.83
-3.50
-4.04
-4.35
-4.34
-3.91
-3.04
-1.90
-0.74
0.03
0.14
-0.49
-1.64
-2.80
-3.41
-3.05
-1.70
0.35
2.53
4.25
5.17
5.25
4.74
3.93
3.10
2.30
1.54
0.84
0.24
-0.21
-0.41
-0.42
-0.36
-0.39
-0.63
-1.06
-1.52
-1.78
-1.63
-1.02
-0.01
1.08
1.92
2.23
1.96
1.33
0.70
0.37
0.41
0.69
0.95
1.03
0.89
0.66
0.47
0.37
0.32
0.26
0.08
-0.25
-0.66
-1.08
-1.41
-1.60
-1.62
-1.48
-1.22
-0.92
-0.60
-0.32
-0.07
0.11
0.23
0.24
0.11
-0.19
-0.61
-1.01
-1.24
-1.16
-0.79
-0.27
0.16
0.35
0.27
0.05
-0.08
0.05
0.44
0.97
1.42
1.63
1.56
1.29
0.95
0.66
0.45
0.26
0.08
-0.13
-0.30
-0.34
-0.16
0.24
0.82
1.43
1.91
2.12
2.02
1.64
1.14
0.66
0.36
0.26
0.30
0.32
0.15
-0.30
-1.05
-1.93
-2.74
-3.27
-3.39
-3.08
-2.42
-1.53
-0.55
0.42
1.36
2.20
2.88
3.35
3.60
3.65
3.55
3.37
3.19
3.05
2.92
2.70
2.24
1.49
0.48
-0.74
-2.01
-3.13
-3.91
-4.26
-4.17
-3.74
-2.97
-1.94
-0.83
0.17
0.83
1.04
0.75
0.08
-0.75
-1.42
-1.78
-1.98
-2.28
-2.90
-3.88
-4.73
-4.90
-4.58
-3.99
-3.23
-2.60
-2.21
-1.85
-1.16
0.15
1.97
3.94
5.59
6.49
6.33
5.20
3.35
1.07
-1.44
-3.96
-6.10
-6.98
-5.97
-3.64
-1.53
-0.98
-2.10
-3.89
-4.91
-4.23
-1.90
1.08
3.35
4.06
3.34
2.02
1.00
0.80
1.45
2.53
3.55
4.11
4.01
3.39
2.41
1.20
-0.08
-1.24
-1.96
-2.07
-1.70
-1.10
-0.57
-0.21
0.03
0.38
1.07
2.02
2.90
3.24
2.74
1.45
-0.20
-1.53
-1.96
-1.29
0.15
1.67
2.51
2.23
0.93
-0.92
-2.72
-4.04
-4.76
-5.04
-5.10
-5.15
-5.23
-5.23
-5.00
-4.55
-3.94
-3.24
-2.47
-1.61
-0.66
0.27
1.05
1.65
2.13
2.71
3.60
4.81
6.00
6.56
6.05
4.40
2.11
0.00
-1.24
-1.33
-0.48
0.84
2.13
3.26
4.39
5.80
7.61
9.27
10.06
9.46
7.53
4.91
2.39
0.45
-0.74
-1.37
-1.75
-2.01
-2.14
-2.03
-1.79
-1.75
-2.19
-3.14
-4.17
-4.71
-4.31
-2.92
-1.01
0.68
1.51
1.36
0.56
-0.41
-1.27
-2.03
-2.82
-3.61
-3.95
-3.35
-1.65
0.71
2.79
3.73
3.32
1.94
0.48
-0.31
-0.22
0.41
0.95
0.95
0.39
-0.38
-0.97
-1.11
-0.86
-0.44
-0.15
-0.15
-0.36
-0.63
-0.81
-0.84
-0.75
-0.65
-0.60
-0.62
-0.67
-0.69
-0.60
-0.35
-0.03
0.24
0.28
-0.01
-0.57
-1.19
-1.56
-1.48
-0.93
-0.09
0.73
1.27
1.45
1.31
1.00
0.62
0.24
-0.14
-0.51
-0.85
-1.11
-1.23
-1.22
-1.15
-1.09
-1.13
-1.27
-1.43
-1.55
-1.55
-1.40
-1.12
-0.76
-0.37
0.02
0.41
0.81
1.25
1.73
2.25
2.76
3.18
3.41
3.37
3.05
2.51
1.86
1.20
0.65
0.24
0.02
-0.04
0.01
0.11
0.16
0.08
-0.15
-0.47
-0.79
-1.02
-1.09
-1.02
-0.85
-0.65
-0.42
-0.11
0.29
0.77
1.29
1.75
2.11
2.35
2.49
2.58
2.63
2.63
2.60
2.55
2.53
2.56
2.62
2.61
2.40
1.94
1.27
0.54
-0.09
-0.51
-0.70
-0.75
-0.74
-0.73
-0.71
-0.64
-0.50
-0.34
-0.24
-0.29
-0.51
-0.85
-1.22
-1.52
-1.71
-1.80
-1.87
-2.00
-2.20
-2.41
-2.51
-2.46
-2.25
-1.97
-1.71
-1.52
-1.35
-1.13
-0.78
-0.31
0.11
0.31
0.17
-0.22
-0.70
-1.02
-1.08
-0.90
-0.63
-0.48
-0.57
-0.90
-1.31
-1.71
-2.13
-2.69
-3.39
-4.05
-4.47
-4.46
-4.02
-3.14
-2.07
-1.07
-0.40
-0.08
-0.03
-0.25
-0.79
-1.64
-2.53
-3.39
-4.35
-5.68
-7.60
-9.40
-10.17
-9.18
-7.16
-4.40
-1.19
2.34
5.76
8.72
11.07
12.69
13.47
13.04
11.54
9.41
7.25
5.62
4.40
3.36
2.23
0.88
-0.78
-2.51
-4.12
-5.48
-6.28
-6.31
-5.55
-4.35
-3.15
-2.31
-1.82
-1.53
-1.26
-0.88
-0.39
0.26
1.03
1.79
2.38
2.70
2.76
2.76
3.01
3.77
5.10
6.81
8.42
9.44
9.34
8.10
6.21
4.46
3.40
3.13
3.32
3.45
3.16
2.38
1.19
-0.32
-2.08
-4.02
-5.88
-7.22
-7.57
-6.76
-5.07
-3.21
-1.94
-1.75
-2.54
-3.64
-4.23
-3.83
-2.56
-1.11
-0.24
-0.35
-1.17
-1.98
-2.02
-0.97
0.75
2.17
2.31
0.71
-2.27
-5.62
-8.19
-9.17
-8.47
-6.73
-4.83
-3.51
-2.97
-2.85
-2.52
-1.56
0.08
1.94
3.43
4.21
4.38
4.38
4.67
5.40
6.36
7.09
7.18
6.54
5.37
4.02
2.77
1.77
1.07
0.70
0.72
1.17
1.98
2.93
3.72
4.09
3.89
3.05
1.63
-0.27
-2.48
-4.79
-6.94
-8.63
-9.59
-9.72
-9.04
-7.72
-5.97
-4.03
-2.09
-0.33
1.24
2.68
4.02
5.23
6.14
6.55
6.31
5.34
3.76
1.74
-0.45
-2.61
-4.60
-6.28
-7.50
-7.85
-7.17
-5.88
-4.74
-4.21
-4.25
-4.15
-3.24
-1.28
1.56
4.70
7.42
9.26
10.17
10.09
9.24
7.94
6.47
5.02
3.58
2.20
1.01
0.18
-0.21
-0.18
0.12
0.42
0.49
0.17
-0.54
-1.46
-2.31
-2.87
-3.02
-2.83
-2.52
-2.29
-2.26
-2.39
-2.52
-2.50
-2.24
-1.78
-1.23
-0.73
-0.38
-0.19
-0.12
-0.11
-0.09
0.00
0.20
0.50
0.83
1.11
1.22
1.10
0.80
0.40
0.01
-0.29
-0.50
-0.66
-0.80
-0.92
-0.93
-0.77
-0.40
0.20
1.01
1.96
2.95
3.84
4.48
4.80
4.82
4.65
4.47
4.36
4.27
3.99
3.27
2.01
0.31
-1.59
-3.43
-5.07
-6.34
-6.93
-6.63
-5.51
-3.98
-2.62
-1.93
-2.09
-2.78
-3.41
-3.40
-2.54
-1.06
0.46
1.38
1.30
0.24
-1.45
-3.33
-4.91
-5.78
-5.81
-4.97
-3.40
-1.36
0.79
2.65
3.89
4.44
4.44
4.15
3.86
3.70
3.68
3.75
3.83
3.87
3.94
4.03
4.01
3.71
2.99
1.91
0.76
-0.10
-0.46
-0.24
0.49
1.56
2.77
3.99
5.16
6.24
6.98
6.97
5.86
3.52
0.07
-4.07
-8.26
-11.79
-13.54
-12.83
-9.97
-6.32
-3.31
-1.72
-1.51
-2.07
-2.67
-2.92
-2.87
-2.84
-2.88
-2.67
-1.74
0.15
2.78
5.47
7.44
8.16
7.42
5.53
3.57
2.53
2.60
3.10
3.14
2.34
0.98
-0.23
-0.70
-0.29
0.59
1.25
1.28
0.70
-0.13
-0.80
-1.18
-1.28
-1.18
-0.99
-0.73
-0.37
0.13
0.80
1.53
2.22
2.81
3.21
3.33
2.98
2.07
0.64
-1.07
-2.64
-3.73
-4.20
-4.19
-3.95
-3.71
-3.63
-3.75
-4.08
-4.65
-5.42
-6.21
-6.66
-6.45
-5.46
-3.91
-2.26
-0.96
-0.16
0.29
0.71
1.35
2.16
2.85
3.13
2.91
2.33
1.75
1.47
1.61
2.17
2.90
3.57
4.00
4.08
3.73
2.94
1.69
0.07
-1.80
-3.68
-5.34
-6.59
-7.33
-7.57
-7.35
-6.79
-6.00
-5.12
-4.29
-3.62
-3.10
-2.65
-2.15
-1.52
-0.74
0.13
1.01
1.85
2.62
3.23
3.59
3.61
3.31
2.84
2.42
2.28
2.52
3.04
3.66
4.17
4.47
4.58
4.55
4.45
4.28
4.04
3.71
3.32
2.90
2.46
2.00
1.49
0.90
0.26
-0.37
-0.92
-1.35
-1.66
-1.89
-2.03
-2.07
-1.97
-1.72
-1.35
-0.96
-0.68
-0.59
-0.72
-1.01
-1.33
-1.54
-1.51
-1.22
-0.71
-0.05
0.61
1.15
1.47
1.54
1.39
1.13
0.86
0.72
0.78
1.06
1.48
1.93
2.24
2.29
2.06
1.62
1.13
0.75
0.52
0.43
0.38
0.27
0.09
-0.10
-0.25
-0.35
-0.46
-0.67
-1.05
-1.56
-2.07
-2.42
-2.50
-2.26
-1.75
-1.06
-0.28
0.50
1.20
1.76
2.10
2.19
2.05
1.76
1.44
1.20
1.09
1.09
1.10
1.03
0.83
0.53
0.27
0.17
0.31
0.66
1.06
1.36
1.45
1.34
1.15
1.03
1.07
1.23
1.40
1.50
1.50
1.49
1.52
1.54
1.40
0.93
0.14
-0.73
-1.30
-1.26
-0.58
0.44
1.36
1.82
1.74
1.34
0.95
0.76
0.73
0.65
0.33
-0.24
-0.82
-1.17
-1.10
-0.66
-0.06
0.41
0.55
0.34
-0.03
-0.40
-0.68
-0.93
-1.31
-1.91
-2.72
-3.57
-4.31
-4.93
-5.34
-5.67
-5.96
-6.11
-5.77
-4.70
-2.93
-0.90
0.80
1.76
1.88
1.38
0.64
-0.03
-0.58
-1.01
-1.40
-1.69
-1.68
-1.17
-0.14
1.16
2.31
2.84
2.61
1.75
0.63
-0.27
-0.76
-0.94
-1.07
-1.46
-2.10
-2.72
-2.80
-2.09
-0.57
1.39
3.28
4.65
5.36
5.64
5.86
6.32
6.96
7.47
7.42
6.49
4.52
1.85
-0.91
-3.16
-4.62
-5.37
-5.65
-5.60
-4.94
-3.59
-2.00
-0.83
-0.61
-1.37
-2.63
-3.73
-4.18
-3.84
-2.83
-1.64
-0.71
-0.25
-0.22
-0.38
-0.56
-0.78
-1.16
-1.85
-2.97
-4.26
-5.02
-4.74
-3.30
-1.05
1.24
2.79
3.13
2.37
1.17
0.33
0.33
1.05
2.02
2.65
2.61
1.97
1.02
0.13
-0.48
-0.86
-1.07
-1.16
-1.02
-0.54
0.18
0.84
1.08
0.72
-0.19
-1.28
-2.09
-2.29
-1.88
-1.20
-0.64
-0.47
-0.62
-0.87
-0.98
-0.76
-0.12
0.96
2.49
4.43
6.71
9.18
11.49
12.89
12.80
11.24
8.89
6.52
4.58
3.02
1.65
0.39
-0.68
-1.46
-1.88
-2.07
-2.31
-2.89
-3.84
-4.95
-5.90
-6.43
-6.42
-5.95
-5.17
-4.19
-3.14
-2.16
-1.37
-1.02
-1.42
-2.69
-4.61
-6.70
-8.24
-8.64
-8.14
-7.16
-5.89
-4.60
-3.41
-2.40
-1.51
-0.68
0.15
1.05
2.15
3.66
5.60
7.75
9.63
10.65
10.40
8.82
6.30
3.56
1.33
-0.02
-0.50
-0.50
-0.42
-0.38
-0.25
0.18
0.97
1.80
2.17
1.74
0.63
-0.61
-1.28
-1.13
-0.35
0.47
0.77
0.36
-0.49
-1.32
-1.77
-1.67
-1.20
-0.64
-0.24
-0.10
-0.19
-0.45
-0.86
-1.41
-2.03
-2.58
-2.80
-2.50
-1.59
-0.26
1.17
2.34
3.01
3.17
2.97
2.63
2.31
2.01
1.69
1.34
0.98
0.71
0.59
0.59
0.60
0.51
0.24
-0.11
-0.39
-0.49
-0.44
-0.42
-0.63
-1.19
-2.10
-3.27
-4.60
-6.02
-7.23
-7.84
-7.51
-6.25
-4.37
-2.44
-1.05
-0.53
-0.77
-1.30
-1.59
-1.34
-0.55
0.55
1.68
2.67
3.60
4.67
5.93
7.08
7.71
7.55
6.63
5.28
3.87
2.65
1.69
0.96
0.38
-0.05
-0.33
-0.48
-0.58
-0.71
-0.90
-1.13
-1.39
-1.65
-1.91
-2.11
-2.19
-2.05
-1.64
-1.03
-0.35
0.18
0.42
0.32
-0.01
-0.32
-0.34
0.02
0.69
1.45
2.10
2.52
2.78
3.00
3.26
3.51
3.51
3.05
2.06
0.68
-0.85
-2.28
-3.43
-4.10
-4.14
-3.59
-2.74
-1.91
-1.35
-1.18
-1.39
-1.82
-2.24
-2.45
-2.40
-2.13
-1.76
-1.42
-1.16
-0.97
-0.78
-0.53
-0.23
0.04
0.20
0.18
-0.02
-0.33
-0.62
-0.74
-0.61
-0.20
0.39
1.05
1.63
2.02
2.14
1.92
1.42
0.77
0.16
-0.23
-0.34
-0.23
-0.08
-0.06
-0.28
-0.69
-1.15
-1.51
-1.64
-1.57
-1.45
-1.45
-1.64
-1.98
-2.34
-2.54
-2.46
-2.00
-1.22
-0.31
0.46
0.89
0.87
0.40
-0.42
-1.36
-2.10
-2.31
-1.78
-0.45
1.67
4.46
7.61
10.49
12.16
12.09
10.56
8.36
6.22
4.37
2.52
0.19
-2.73
-5.69
-7.59
-7.47
-5.23
-1.83
1.37
3.18
3.12
1.67
-0.13
-1.31
-1.48
-1.00
-0.52
-0.50
-0.89
-1.29
-1.27
-0.71
0.20
1.08
1.44
1.07
0.03
-1.35
-2.62
-3.39
-3.42
-2.76
-1.68
-0.60
0.17
0.45
0.35
0.09
-0.07
0.00
0.27
0.56
0.68
0.52
0.14
-0.29
-0.57
-0.54
-0.13
0.56
1.35
1.99
2.24
1.97
1.19
0.10
-0.95
-1.60
-1.65
-1.13
-0.33
0.35
0.66
0.57
0.31
0.08
-0.03
-0.19
-0.66
-1.52
-2.59
-3.38
-3.47
-2.64
-1.07
0.73
2.23
3.02
3.03
2.42
1.48
0.49
-0.32
-0.81
-0.91
-0.61
-0.02
0.67
1.29
1.68
1.80
1.75
1.66
1.63
1.71
1.89
2.10
2.24
2.17
1.78
1.04
0.11
-0.70
-1.00
-0.60
0.38
1.51
2.26
2.26
1.48
0.22
-1.07
-2.03
-2.51
-2.53
-2.24
-1.74
-1.11
-0.45
0.16
0.58
0.72
0.53
0.09
-0.49
-1.10
-1.67
-2.19
-2.67
-3.13
-3.67
-4.35
-5.20
-6.13
-6.88
-7.13
-6.61
-5.29
-3.39
-1.37
0.31
1.37
1.78
1.78
1.64
1.55
1.55
1.57
1.50
1.37
1.24
1.17
1.19
1.29
1.37
1.36
1.25
1.07
0.87
0.72
0.67
0.70
0.78
0.85
0.84
0.76
0.62
0.47
0.36
0.31
0.32
0.36
0.40
0.41
0.37
0.29
0.22
0.15
0.12
0.12
0.13
0.15
0.15
0.13
0.10
0.07
0.04
0.02
0.02
0.02
0.02
0.02
0.02
0.02
0.02
0.02
0.02
0.02
0.02
0.02
0.02
0.02
0.02
0.02
0.02
0.02
0.02
0.02
0.02
0.02
0.02
0.02
0.02
0.02
0.02
0.02
0.02
0.02
0.02
0.02
0.02
0.01
0.01
0.01
0.01
0.01
0.01
0.01
0.01
0.01
0.01
0.01
0.01
0.01
0.01
0.01
0.01
0.01
0.01
0.01
0.01
0.01
0.01
0.01
0.01
0.01
0.01
0.01
0.01
0.01
0.01
0.01
0.01
0.01
0.01
0.01
0.01
0.01
0.01
0.01
0.01
0.01
0.01
0.01
0.01
0.01
0.01
0.01
0.01
0.01
0.01
0.01
0.01
0.01
0.01
0.01
0.01
0.01
0.01
0.01
0.01
0.01
0.01
0.01
0.01
0.01
0.01
0.01
0.01
0.01
0.01
0.01
0.01
0.01
0.01
0.01
0.01
0.01
0.01
0.01
0.01
0.01
0.01
0.01
0.01
0.01
0.01
0.01
0.01
0.01
0.01
0.01
0.01
0.01
0.01
0.01
0.01
0.01
0.01
0.01
0.01
0.01
0.01
0.01
0.01
0.01
0.01
0.01
0.01
0.02
0.02
0.03
0.03
0.02
0.01
0.00
-0.00
-0.00
0.00
0.01
0.01
0.01
0.01
-0.00
-0.01
-0.01
-0.00
0.02
0.04
0.07
0.07
0.06
0.04
0.01
0.00
0.02
0.07
0.12
0.16
0.17
0.13
0.06
-0.01
-0.04
-0.01
0.08
0.20
0.29
0.30
0.23
0.09
-0.05
-0.12
-0.07
0.08
0.29
0.46
0.50
0.40
0.17
-0.06
-0.20
-0.17
0.01
0.27
0.51
0.62
0.52
0.15
-0.48
-1.32
-2.19
-2.85
-3.02
-2.53
-1.47
-0.09
1.21
2.14
2.66
2.90
3.09
3.38
3.76
4.07
4.11
3.73
2.89
1.65
0.16
-1.34
-2.62
-3.49
-3.89
-3.94
-3.90
-3.99
-4.30
-4.64
-4.71
-4.24
-3.22
-1.92
-0.76
-0.11
-0.07
-0.46
-0.94
-1.19
-1.14
-0.93
-0.77
-0.78
-0.90
-0.91
-0.57
0.17
1.20
2.32
3.34
4.18
4.91
5.52
5.91
5.87
5.18
3.92
2.41
1.13
0.48
0.58
1.11
1.58
1.58
1.07
0.36
-0.16
-0.27
-0.07
0.10
-0.14
-0.91
-2.22
-3.77
-5.24
-6.27
-6.63
-6.13
-4.68
-2.40
0.35
2.95
4.72
5.23
4.44
2.81
1.07
-0.17
-0.66
-0.58
-0.38
-0.47
-0.96
-1.65
-2.21
-2.41
-2.28
-2.04
-2.02
-2.33
-2.84
-3.19
-3.06
-2.36
-1.27
-0.14
0.71
1.14
1.26
1.28
1.33
1.36
1.18
0.54
-0.57
-1.92
-3.14
-3.91
-4.12
-3.92
-3.61
-3.39
-3.26
-2.99
-2.31
-1.06
0.68
2.61
4.32
5.45
5.84
5.60
5.08
4.73
4.87
5.57
6.57
7.44
7.79
7.47
6.55
5.23
3.76
2.27
0.95
-0.02
-0.42
-0.18
0.48
1.02
0.83
-0.42
-2.50
-4.61
-5.83
-5.45
-3.46
-0.42
2.75
5.29
6.84
7.43
7.22
6.26
4.46
1.73
-1.76
-5.38
-8.25
-9.63
-9.30
-7.67
-5.69
-4.36
-4.24
-5.23
-6.67
-7.76
-7.92
-7.11
-5.71
-4.27
-3.14
-2.38
-1.82
-1.24
-0.58
0.14
0.85
1.56
2.36
3.26
4.17
4.81
4.91
4.31
3.17
1.83
0.74
0.28
0.55
1.45
2.66
3.83
4.62
4.85
4.47
3.57
2.25
0.66
-1.01
-2.51
-3.48
-3.62
-2.86
-1.48
-0.04
0.87
0.92
0.22
-0.77
-1.48
-1.57
-1.12
-0.40
0.26
0.73
1.05
1.32
1.54
1.60
1.48
1.17
0.93
0.99
1.50
2.36
3.25
3.68
3.25
1.77
-0.53
-3.09
-5.16
-6.07
-5.47
-3.57
-1.00
1.39
2.89
3.24
2.68
1.71
0.82
0.23
-0.12
-0.44
-0.85
-1.26
-1.47
-1.28
-0.64
0.30
1.21
1.74
1.67
0.98
-0.17
-1.52
-2.80
-3.76
-4.31
-4.45
-4.28
-3.92
-3.44
-2.80
-1.86
-0.55
1.06
2.71
4.04
4.73
4.74
4.26
3.65
3.25
3.22
3.42
3.51
3.19
2.29
0.89
-0.71
-2.17
-3.16
-3.59
-3.53
-3.25
-3.01
-3.00
-3.23
-3.52
-3.64
-3.37
-2.69
-1.72
-0.69
0.15
0.70
0.98
1.12
1.28
1.54
1.87
2.15
2.27
2.12
1.70
1.05
0.25
-0.56
-1.26
-1.74
-1.91
-1.73
-1.21
-0.41
0.54
1.51
2.32
2.80
2.80
2.23
1.16
-0.13
-1.24
-1.76
-1.44
-0.34
1.16
2.60
3.54
3.76
3.28
2.30
1.05
-0.23
-1.32
-1.99
-2.11
-1.70
-1.01
-0.45
-0.34
-0.77
-1.53
-2.21
-2.44
-2.10
-1.36
-0.51
0.18
0.61
0.84
1.00
1.16
1.31
1.33
1.08
0.53
-0.24
-1.04
-1.63
-1.82
-1.59
-1.09
-0.59
-0.40
-0.63
-1.24
-1.97
-2.54
-2.68
-2.29
-1.42
-0.25
1.01
2.10
2.82
3.09
2.97
2.63
2.32
2.17
2.17
2.22
2.20
2.06
1.85
1.60
1.28
0.82
0.11
-0.77
-1.62
-2.16
-2.20
-1.76
-1.05
-0.41
-0.08
-0.13
-0.45
-0.85
-1.12
-1.16
-0.92
-0.47
0.05
0.47
0.67
0.63
0.42
0.14
-0.09
-0.25
-0.38
-0.47
-0.51
-0.40
-0.12
0.28
0.65
0.81
0.67
0.30
-0.16
-0.49
-0.58
-0.44
-0.17
0.08
0.23
0.26
0.21
0.17
0.22
0.37
0.60
0.82
0.94
0.88
0.62
0.26
-0.07
-0.24
-0.22
-0.14
-0.18
-0.48
-1.06
-1.79
-2.46
-2.91
-3.06
-2.94
-2.58
-1.98
-1.15
-0.20
0.68
1.25
1.31
0.85
0.01
-0.90
-1.55
-1.73
-1.44
-0.84
-0.24
0.13
0.13
-0.14
-0.44
-0.48
-0.06
0.75
1.61
2.12
2.02
1.40
0.64
0.21
0.32
0.81
1.25
1.22
0.59
-0.39
-1.19
-1.42
-0.94
0.04
1.11
1.95
2.41
2.54
2.45
2.20
1.83
1.35
0.87
0.50
0.36
0.48
0.75
1.01
1.13
1.07
0.83
0.44
-0.05
-0.58
-1.09
-1.43
-1.49
-1.22
-0.69
-0.06
0.48
0.74
0.67
0.26
-0.44
-1.31
-2.20
-2.94
-3.34
-3.21
-2.49
-1.33
-0.03
1.09
1.81
2.08
1.97
1.60
1.11
0.63
0.29
0.17
0.25
0.42
0.51
0.43
0.15
-0.19
-0.48
-0.65
-0.73
-0.80
-0.87
-0.80
-0.45
0.25
1.19
2.02
2.45
2.33
1.68
0.70
-0.45
-1.63
-2.71
-3.46
-3.62
-2.95
-1.46
0.48
2.25
3.23
3.14
2.16
0.81
-0.33
-0.94
-1.09
-1.15
-1.41
-2.03
-2.85
-3.54
-3.79
-3.51
-2.78
-1.85
-0.97
-0.26
0.22
0.50
0.61
0.59
0.47
0.30
0.14
0.03
0.02
0.13
0.31
0.56
0.89
1.31
1.86
2.50
3.08
3.39
3.17
2.36
1.08
-0.24
-1.11
-1.22
-0.59
0.39
1.23
1.56
1.40
1.04
0.85
1.00
1.37
1.60
1.38
0.68
-0.19
-0.76
-0.63
0.26
1.58
2.70
2.98
2.07
0.06
-2.48
-4.74
-6.02
-5.99
-4.74
-2.76
-0.57
1.33
2.60
3.14
3.05
2.62
2.26
2.37
3.10
4.29
5.48
6.11
5.79
4.46
2.38
-0.02
-2.30
-4.12
-5.21
-5.36
-4.53
-2.86
-0.82
1.00
2.09
2.21
1.53
0.51
-0.46
-1.11
-1.48
-1.72
-1.98
-2.23
-2.36
-2.24
-1.87
-1.38
-0.97
-0.72
-0.67
-0.69
-0.65
-0.47
-0.16
0.19
0.46
0.57
0.49
0.28
0.04
-0.09
-0.05
0.19
0.53
0.82
0.93
0.77
0.36
-0.18
-0.68
-1.02
-1.12
-1.06
-0.94
-0.94
-1.20
-1.76
-2.53
-3.34
-3.92
-4.02
-3.46
-2.17
-0.30
1.81
3.68
4.86
5.10
4.46
3.30
2.09
1.21
0.80
0.72
0.73
0.66
0.48
0.30
0.27
0.41
0.62
0.72
0.61
0.31
-0.04
-0.25
-0.17
0.20
0.73
1.21
1.45
1.35
0.95
0.40
-0.10
-0.41
-0.51
-0.47
-0.45
-0.59
-1.00
-1.70
-2.62
-3.61
-4.46
-4.96
-4.97
-4.49
-3.68
-2.80
-2.11
-1.76
-1.69
-1.77
-1.80
-1.67
-1.42
-1.09
-0.73
-0.29
0.26
0.84
1.27
1.34
1.00
0.40
-0.15
-0.38
-0.22
0.13
0.34
0.21
-0.23
-0.79
-1.17
-1.21
-0.91
-0.39
0.22
0.83
1.45
2.11
2.79
3.36
3.73
3.81
3.65
3.29
2.72
2.03
1.27
0.54
-0.09
-0.63
-1.12
-1.59
-2.00
-2.27
-2.25
-1.88
-1.20
-0.34
0.52
1.20
1.65
1.86
1.90
1.85
1.72
1.49
1.13
0.65
0.11
-0.34
-0.58
-0.57
-0.32
0.07
0.46
0.75
0.90
0.93
0.88
0.78
0.64
0.48
0.28
0.04
-0.23
-0.51
-0.74
-0.88
-0.91
-0.84
-0.75
-0.70
-0.74
-0.84
-0.95
-0.97
-0.86
-0.62
-0.32
0.01
0.32
0.61
0.85
1.03
1.12
1.10
0.99
0.82
0.61
0.35
0.02
-0.36
-0.75
-1.07
-1.26
-1.30
-1.20
-1.02
-0.78
-0.49
-0.15
0.20
0.53
0.77
0.89
0.91
0.89
0.88
0.83
0.71
0.45
0.10
-0.26
-0.47
-0.45
-0.20
0.18
0.56
0.85
1.03
1.20
1.41
1.68
1.93
2.00
1.80
1.32
0.72
0.15
-0.24
-0.43
-0.49
-0.50
-0.47
-0.33
-0.09
0.10
-0.03
-0.69
-1.85
-3.10
-3.86
-3.67
-2.50
-0.79
0.74
1.54
1.44
0.76
-0.00
-0.45
-0.51
-0.38
-0.31
-0.45
-0.68
-0.81
-0.66
-0.24
0.27
0.48
0.11
-0.87
-2.20
-3.35
-3.78
-3.22
-1.76
0.12
1.81
2.87
3.20
3.01
2.64
2.39
2.27
2.16
1.85
1.22
0.35
-0.53
-1.21
-1.55
-1.52
-1.27
-0.95
-0.69
-0.53
-0.44
-0.34
-0.15
0.14
0.47
0.77
0.98
1.06
1.04
0.98
0.94
0.94
0.98
1.01
0.97
0.86
0.68
0.52
0.43
0.48
0.64
0.90
1.17
1.39
1.48
1.42
1.17
0.72
0.07
-0.68
-1.43
-2.05
-2.44
-2.60
-2.59
-2.51
-2.42
-2.32
-2.14
-1.83
-1.42
-1.00
-0.69
-0.58
-0.67
-0.91
-1.18
-1.35
-1.35
-1.12
-0.71
-0.19
0.32
0.70
0.89
0.89
0.75
0.55
0.29
-0.03
-0.49
-1.17
-2.06
-3.10
-4.15
-5.04
-5.58
-5.62
-5.13
-4.19
-3.02
-1.83
-0.79
0.10
0.97
1.95
3.08
4.19
5.02
5.27
4.87
4.00
3.05
2.42
2.37
2.87
3.67
4.37
4.65
4.36
3.51
2.27
0.81
-0.66
-1.97
-2.93
-3.37
-3.21
-2.46
-1.24
0.20
1.61
2.75
3.47
3.72
3.55
3.09
2.49
1.99
1.74
1.78
1.97
2.14
2.13
1.96
1.71
1.38
1.01
0.62
0.20
-0.22
-0.72
-1.31
-1.92
-2.48
-2.93
-3.18
-3.15
-2.78
-2.10
-1.22
-0.37
0.27
0.54
0.45
0.16
-0.13
-0.30
-0.33
-0.33
-0.39
-0.53
-0.67
-0.65
-0.41
0.01
0.38
0.46
0.08
-0.69
-1.59
-2.30
-2.56
-2.31
-1.68
-0.90
-0.20
0.32
0.65
0.91
1.19
1.56
2.02
2.43
2.64
2.47
1.85
0.87
-0.21
-1.05
-1.41
-1.25
-0.77
-0.31
-0.19
-0.56
-1.38
-2.42
-3.37
-3.95
-4.03
-3.62
-2.84
-1.89
-1.00
-0.36
-0.10
-0.17
-0.48
-0.90
-1.34
-1.75
-2.13
-2.45
-2.67
-2.75
-2.67
-2.45
-2.14
-1.71
-1.05
0.02
1.54
3.30
4.92
5.96
6.19
5.71
4.93
4.38
4.46
5.20
6.10
6.52
6.07
4.86
3.36
1.97
0.85
-0.07
-0.90
-1.66
-2.25
-2.49
-2.33
-1.85
-1.29
-0.88
-0.73
-0.87
-1.25
-1.73
-2.13
-2.39
-2.54
-2.76
-3.16
-3.58
-3.66
-3.13
-2.10
-0.85
0.23
0.81
0.76
0.29
-0.27
-0.57
-0.43
0.07
0.70
1.21
1.44
1.40
1.21
1.03
0.94
1.00
1.13
1.26
1.29
1.16
0.91
0.67
0.60
0.76
1.06
1.26
1.14
0.59
-0.27
-1.17
-1.78
-1.86
-1.41
-0.59
0.27
0.95
1.34
1.44
1.26
0.89
0.34
-0.32
-1.01
-1.58
-1.80
-1.44
-0.45
0.98
2.45
3.55
4.00
3.83
3.35
3.01
3.24
4.06
4.98
5.35
4.85
3.61
2.11
0.71
-0.51
-1.66
-2.91
-4.36
-5.95
-7.25
-8.01
-8.18
-8.02
-7.89
-8.11
-8.45
-8.63
-8.39
-7.64
-6.47
-5.04
-3.47
-1.86
-0.40
0.64
0.90
0.16
-1.50
-3.64
-5.53
-6.39
-5.73
-3.51
-0.17
3.55
7.00
9.79
11.67
12.50
12.19
10.79
8.50
5.79
3.10
1.15
0.25
0.30
0.86
1.44
1.73
1.69
1.48
1.26
1.11
0.96
0.69
0.31
-0.11
-0.44
-0.56
-0.40
-0.07
0.33
0.57
0.52
0.16
-0.34
-0.80
-1.07
-1.10
-0.97
-0.80
-0.71
-0.76
-0.85
-0.87
-0.77
-0.54
-0.28
-0.10
-0.06
-0.16
-0.31
-0.44
-0.51
-0.52
-0.50
-0.49
-0.49
-0.48
-0.44
-0.33
-0.12
0.13
0.35
0.44
0.33
0.05
-0.32
-0.64
-0.82
-0.79
-0.63
-0.41
-0.24
-0.14
-0.09
-0.02
0.08
0.22
0.35
0.46
0.53
0.59
0.65
0.70
0.69
0.63
0.53
0.45
0.42
0.44
0.42
0.29
0.00
-0.39
-0.76
-0.98
-0.96
-0.74
-0.43
-0.16
0.00
0.07
0.12
0.23
0.44
0.74
1.09
1.46
1.85
2.18
2.31
2.07
1.33
0.11
-1.39
-2.78
-3.68
-3.84
-3.28
-2.29
-1.27
-0.57
-0.36
-0.56
-0.92
-1.13
-0.96
-0.38
0.49
1.40
2.10
2.44
2.36
1.98
1.42
0.77
0.07
-0.69
-1.47
-2.28
-3.13
-4.02
-4.93
-5.70
-6.07
-5.74
-4.59
-2.75
-0.67
1.10
2.17
2.51
2.36
2.15
2.15
2.36
2.61
2.65
2.42
2.02
1.68
1.56
1.68
1.95
2.13
2.06
1.69
1.11
0.54
0.19
0.18
0.50
1.01
1.53
1.87
1.94
1.73
1.32
0.84
0.39
0.09
-0.05
-0.06
-0.03
-0.03
-0.08
-0.14
-0.15
-0.12
-0.14
-0.34
-0.79
-1.42
-2.07
-2.51
-2.62
-2.39
-1.98
-1.54
-1.15
-0.80
-0.41
0.05
0.53
0.92
1.11
1.08
0.88
0.63
0.43
0.35
0.39
0.52
0.64
0.69
0.58
0.29
-0.16
-0.68
-1.17
-1.55
-1.76
-1.71
-1.36
-0.68
0.25
1.23
1.98
2.27
2.02
1.39
0.68
0.22
0.16
0.45
0.89
1.22
1.31
1.15
0.83
0.48
0.20
0.00
-0.11
-0.17
-0.26
-0.38
-0.53
-0.66
-0.66
-0.45
-0.03
0.51
1.02
1.34
1.39
1.23
0.96
0.71
0.57
0.54
0.58
0.63
0.66
0.70
0.76
0.84
0.91
0.91
0.81
0.57
0.22
-0.22
-0.68
-1.09
-1.41
-1.61
-1.74
-1.85
-1.99
-2.19
-2.42
-2.63
-2.76
-2.79
-2.74
-2.62
-2.45
-2.23
-1.93
-1.56
-1.14
-0.75
-0.44
-0.21
-0.02
0.22
0.54
0.91
1.21
1.30
1.06
0.55
-0.08
-0.62
-0.91
-0.91
-0.69
-0.39
-0.12
0.11
0.32
0.57
0.87
1.18
1.42
1.51
1.42
1.14
0.69
0.14
-0.45
-0.96
-1.26
-1.30
-1.07
-0.68
-0.26
0.05
0.19
0.17
0.06
-0.08
-0.22
-0.34
-0.43
-0.45
-0.33
-0.02
0.47
1.05
1.56
1.87
1.91
1.73
1.49
1.37
1.53
1.97
2.56
3.09
3.36
3.28
2.87
2.29
1.70
1.23
0.91
0.65
0.37
0.01
-0.43
-0.89
-1.24
-1.39
-1.33
-1.15
-0.96
-0.82
-0.68
-0.47
-0.13
0.34
0.76
0.88
0.50
-0.42
-1.64
-2.77
-3.49
-3.67
-3.39
-2.97
-2.58
-2.43
-2.64
-3.06
-3.32
-2.96
-1.92
-0.35
1.38
2.76
3.38
3.16
2.36
1.34
0.57
0.22
0.19
0.23
0.19
0.08
0.01
-0.02
-0.22
-0.85
-2.05
-3.64
-5.17
-6.14
-6.33
-5.93
-5.37
-4.98
-4.66
-4.02
-2.67
-0.53
1.98
4.19
5.53
5.81
5.23
4.35
3.83
3.95
4.51
4.81
4.37
3.22
1.68
0.19
-0.88
-1.41
-1.51
-1.37
-1.08
-0.65
-0.09
0.53
1.13
1.62
1.98
2.23
2.37
2.37
2.21
1.88
1.43
0.98
0.67
0.56
0.59
0.61
0.49
0.21
-0.17
-0.51
-0.70
-0.68
-0.49
-0.24
-0.05
-0.02
-0.14
-0.36
-0.57
-0.71
-0.71
-0.61
-0.45
-0.31
-0.20
-0.14
-0.10
-0.07
-0.06
-0.07
-0.11
-0.21
-0.37
-0.59
-0.82
-1.00
-1.07
-1.01
-0.85
-0.66
-0.51
-0.47
-0.52
-0.62
-0.71
-0.73
-0.68
-0.53
-0.29
0.04
0.47
0.95
1.41
1.77
1.94
1.89
1.69
1.41
1.18
1.06
1.06
1.11
1.13
1.03
0.79
0.48
0.18
-0.03
-0.11
-0.09
-0.03
0.02
0.03
-0.01
-0.05
-0.06
-0.00
0.13
0.27
0.36
0.34
0.18
-0.09
-0.36
-0.57
-0.66
-0.62
-0.52
-0.41
-0.35
-0.33
-0.35
-0.36
-0.37
-0.35
-0.35
-0.37
-0.44
-0.56
-0.74
-0.94
-1.10
-1.18
-1.11
-0.85
-0.42
0.12
0.64
1.03
1.22
1.20
1.01
0.74
0.45
0.19
-0.01
-0.14
-0.20
-0.20
-0.13
-0.02
0.14
0.32
0.52
0.70
0.84
0.90
0.89
0.85
0.82
0.87
1.02
1.25
1.49
1.66
1.71
1.60
1.36
1.06
0.76
0.55
0.47
0.52
0.66
0.82
0.93
0.93
0.77
0.43
-0.08
-0.71
-1.38
-1.99
-2.41
-2.61
-2.61
-2.49
-2.35
-2.23
-2.18
-2.28
-2.61
-3.25
-4.10
-4.92
-5.33
-5.04
-3.94
-2.29
-0.58
0.72
1.33
1.34
1.01
0.64
0.35
0.08
-0.30
-0.91
-1.68
-2.43
-2.97
-3.19
-3.13
-2.91
-2.65
-2.39
-2.13
-1.85
-1.57
-1.30
-1.05
-0.84
-0.68
-0.56
-0.43
-0.26
0.03
0.51
1.24
2.27
3.41
4.38
4.89
4.90
4.53
4.06
3.58
3.13
2.71
2.32
1.99
1.75
1.66
1.75
1.95
2.12
2.11
1.88
1.41
0.85
0.38
0.16
0.20
0.45
0.77
1.04
1.20
1.23
1.08
0.77
0.28
-0.36
-1.09
-1.84
-2.50
-2.96
-3.09
-2.78
-2.06
-1.06
-0.06
0.68
1.03
1.08
0.98
0.91
0.90
0.85
0.69
0.46
0.29
0.30
0.38
0.28
-0.28
-1.36
-2.69
-3.73
-4.05
-3.52
-2.44
-1.34
-0.59
-0.23
0.02
0.56
1.56
2.80
3.80
4.07
3.40
2.00
0.37
-0.95
-1.62
-1.60
-1.19
-0.73
-0.49
-0.54
-0.73
-0.83
-0.73
-0.36
0.13
0.60
0.90
0.89
0.48
-0.30
-1.29
-2.18
-2.61
-2.36
-1.48
-0.26
0.85
1.48
1.60
1.41
1.27
1.44
1.87
2.31
2.47
2.24
1.71
1.14
0.75
0.62
0.70
0.83
0.85
0.66
0.23
-0.42
-1.22
-2.06
-2.73
-3.05
-2.84
-2.14
-1.18
-0.35
0.01
-0.21
-0.85
-1.52
-1.87
-1.74
-1.21
-0.44
0.45
1.39
2.29
3.02
3.39
3.31
2.89
2.40
2.16
2.30
2.66
2.94
2.89
2.52
2.06
1.77
1.72
1.70
1.38
0.51
-0.78
-2.09
-2.91
-2.91
-2.10
-0.80
0.38
0.99
0.78
-0.11
-1.35
-2.55
-3.44
-3.87
-3.79
-3.16
-2.00
-0.46
1.05
2.04
2.12
1.26
-0.13
-1.45
-2.16
-2.14
-1.72
-1.43
-1.72
-2.65
-3.90
-4.88
-5.06
-4.25
-2.60
-0.64
1.07
2.15
2.50
2.33
1.97
1.80
1.95
2.40
2.90
3.17
2.99
2.27
1.13
-0.21
-1.43
-2.26
-2.50
-2.11
-1.19
0.05
1.33
2.38
2.91
2.75
1.89
0.53
-0.92
-2.01
-2.45
-2.20
-1.52
-0.77
-0.28
-0.13
-0.24
-0.41
-0.49
-0.51
-0.64
-1.08
-1.83
-2.61
-2.98
-2.52
-1.10
1.01
3.25
5.06
6.05
6.24
5.90
5.45
5.32
5.74
6.74
8.11
9.52
10.47
10.52
9.42
7.24
4.38
1.48
-0.69
-1.56
-0.74
1.65
5.17
9.10
12.58
14.86
15.62
15.30
14.82
15.20
16.95
19.86
23.13
25.77
27.25
27.57
27.24
26.96
27.18
28.15
30.11
33.62
39.26
46.71
53.83
56.91
52.29
38.33
16.38
-9.52
-34.13
-53.02
-64.03
-67.57
-65.87
-61.37
-55.83
-50.01
-44.17
-38.33
-32.90
-28.44
-25.25
-23.25
-21.71
-19.95
-17.35
-14.29
-11.30
-9.02
-8.75
-9.79
-11.51
-13.12
-14.45
-15.70
-17.89
-21.58
-26.91
-33.44
-40.24
-46.56
-51.74
-56.31
-61.15
-67.82
-77.02
-88.63
-101.78
-115.21
-128.05
-139.78
-151.54
-158.96
-163.27
-166.85
-172.30
-181.21
-192.95
-207.63
-218.81
-220.40
-206.64
-176.26
-132.89
-84.11
-38.03
0.11
29.05
51.37
70.79
89.29
108.61
129.32
150.75
172.70
196.06
221.79
249.95
278.43
308.38
340.57
375.07
410.81
446.96
483.50
520.79
559.35
573.81
548.98
484.42
392.75
287.94
178.92
70.81
-31.21
-120.59
-191.68
-238.26
-259.50
-260.56
-250.63
-237.41
-225.18
-215.51
-209.10
-206.94
-206.84
-207.64
-207.32
-205.87
-203.39
-200.20
-197.43
-197.08
-201.66
-211.16
-224.77
-237.98
-248.60
-251.40
-240.63
-213.58
-173.04
-127.05
-84.89
-51.93
-31.00
-21.99
-19.77
-18.88
-16.65
-13.88
-13.02
-14.70
-18.04
-21.28
-22.99
-19.39
-8.15
10.49
34.96
59.15
81.23
101.63
121.54
141.84
166.43
197.65
234.25
272.19
307.14
337.31
362.62
383.92
379.64
339.99
271.02
189.98
113.00
48.01
-3.51
-43.52
-74.84
-95.76
-106.09
-105.32
-94.73
-77.37
-56.35
-33.32
-9.15
15.62
34.97
47.27
52.47
50.98
43.63
32.05
18.48
4.51
-9.45
-23.54
-35.68
-43.29
-45.14
-42.20
-37.06
-32.75
-31.57
-34.35
-40.25
-46.34
-49.65
-49.02
-45.37
-40.76
-37.15
-35.55
-35.89
-37.39
-38.61
-38.42
-36.51
-33.31
-29.44
-25.52
-22.01
-19.19
-17.12
-15.60
-14.21
-12.63
-10.90
-9.35
-8.46
-8.58
-9.68
-11.41
-13.22
-14.62
-15.34
-15.28
-14.47
-13.04
-11.14
-8.96
-6.67
-4.33
-1.96
0.31
2.28
3.63
4.12
3.85
3.21
2.77
3.04
4.10
5.63
6.95
7.36
6.31
3.67
-0.11
-4.12
-7.20
-8.50
-7.91
-6.20
-4.71
-4.72
-6.63
-9.76
-12.65
-13.79
-12.44
-9.03
-4.80
-1.11
1.17
2.06
2.07
1.73
1.08
-0.18
-2.25
-4.93
-7.56
-9.19
-9.41
-8.33
-6.46
-4.39
-2.35
-0.46
1.05
1.72
1.03
-1.10
-3.99
-6.42
-7.29
-6.16
-3.60
-0.76
1.34
2.39
2.77
3.00
3.19
2.99
1.84
-0.24
-2.38
-3.21
-1.74
1.87
6.29
9.53
10.00
7.53
3.26
-0.87
-3.17
-3.02
-0.95
1.88
4.37
6.02
6.87
7.24
7.31
7.09
6.45
5.41
4.21
3.14
2.34
1.68
0.79
-0.66
-2.81
-5.41
-7.91
-9.76
-10.51
-10.01
-8.36
-5.85
-2.86
0.20
2.83
4.49
4.69
3.25
0.50
-2.74
-5.38
-6.47
-5.62
-3.16
0.07
3.05
5.07
5.90
5.69
4.75
3.32
1.54
-0.43
-2.30
-3.65
-4.03
-3.25
-1.52
0.63
2.41
3.12
2.49
0.66
-1.84
-4.39
-6.49
-7.92
-8.56
-8.38
-7.30
-5.31
-2.51
0.78
4.05
6.77
8.44
8.83
7.91
5.95
3.47
1.16
-0.37
-0.83
-0.35
0.57
1.24
1.20
0.33
-1.08
-2.58
-3.66
-3.99
-3.42
-1.98
0.07
2.29
4.19
5.21
5.09
3.82
1.71
-0.77
-3.14
-5.08
-6.39
-7.04
-7.14
-6.90
-6.49
-6.07
-5.69
-5.33
-4.98
-4.65
-4.44
-4.35
-4.28
-3.93
-3.00
-1.36
0.85
3.19
5.04
5.79
5.12
3.13
0.38
-2.24
-3.78
-3.63
-1.74
1.33
4.66
7.34
8.84
9.12
8.47
7.29
5.81
4.18
2.59
1.37
0.92
1.53
3.13
5.22
7.12
8.32
8.58
8.06
7.06
5.78
4.28
2.44
0.16
-2.53
-5.33
-7.86
-9.73
-10.69
-10.72
-10.01
-8.86
-7.62
-6.56
-5.78
-5.21
-4.69
-4.11
-3.49
-2.95
-2.59
-2.37
-2.07
-1.33
0.04
1.99
4.13
5.93
6.91
6.85
5.94
4.54
3.05
1.79
0.91
0.45
0.42
0.81
1.43
1.83
1.32
-0.60
-3.91
-7.82
-10.95
-12.02
-10.46
-6.72
-2.04
2.14
4.84
5.92
5.93
5.62
5.40
5.28
5.00
4.36
3.50
2.84
2.84
3.59
4.76
5.63
5.46
3.95
1.42
-1.35
-3.42
-4.22
-3.81
-2.72
-1.71
-1.22
-1.31
-1.75
-2.20
-2.51
-2.74
-3.02
-3.42
-3.85
-4.21
-4.44
-4.64
-4.87
-5.17
-5.37
-5.17
-4.33
-2.85
-1.00
0.75
1.95
2.37
2.11
1.45
0.80
0.47
0.58
1.07
1.76
2.47
3.00
3.17
2.84
2.00
0.86
-0.17
-0.55
0.15
2.01
4.65
7.36
9.33
10.06
9.54
8.17
6.52
4.99
3.70
2.49
1.20
-0.22
-1.57
-2.53
-2.86
-2.57
-1.94
-1.39
-1.24
-1.58
-2.23
-2.86
-3.14
-2.93
-2.27
-1.42
-0.67
-0.21
-0.08
-0.15
-0.25
-0.23
-0.06
0.18
0.39
0.51
0.56
0.58
0.59
0.52
0.29
-0.18
-0.90
-1.76
-2.65
-3.46
-4.15
-4.68
-5.04
-5.20
-5.14
-4.86
-4.44
-3.96
-3.44
-2.82
-1.98
-0.83
0.61
2.21
3.73
4.96
5.70
5.96
5.84
5.57
5.35
5.37
5.64
6.03
6.20
5.84
4.87
3.51
2.22
1.41
1.21
1.33
1.25
0.37
-1.55
-4.27
-7.24
-9.89
-11.94
-13.46
-14.70
-15.36
-15.07
-13.64
-11.26
-8.30
-5.12
-1.95
0.88
3.29
5.20
6.58
7.43
7.98
8.51
9.04
9.59
10.08
10.37
10.34
9.81
8.63
6.78
4.41
1.86
-0.47
-2.24
-3.36
-3.98
-4.43
-5.04
-5.96
-7.10
-8.15
-8.79
-8.83
-8.36
-7.63
-6.87
-6.19
-5.47
-4.50
-3.03
-0.92
1.77
4.59
6.78
7.77
7.50
6.46
5.25
4.33
3.81
3.48
3.00
2.17
1.05
-0.12
-0.99
-1.38
-1.25
-0.78
-0.22
0.17
0.21
-0.11
-0.69
-1.35
-1.89
-2.14
-2.04
-1.64
-1.15
-0.81
-0.75
-0.95
-1.22
-1.33
-1.10
-0.54
0.19
0.87
1.33
1.51
1.46
1.21
0.80
0.28
-0.27
-0.71
-0.95
-0.95
-0.84
-0.84
-1.20
-2.02
-3.14
-4.20
-4.69
-4.26
-2.97
-1.26
0.31
1.37
1.83
1.93
1.93
2.01
2.12
2.11
1.89
1.56
1.34
1.45
2.00
2.87
3.81
4.42
4.44
3.79
2.61
1.22
-0.04
-0.97
-1.51
-1.75
-1.89
-2.06
-2.27
-2.40
-2.25
-1.72
-0.89
-0.03
0.49
0.37
-0.45
-1.74
-3.05
-3.95
-4.23
-3.89
-3.06
-1.87
-0.37
1.43
3.50
5.74
7.91
9.74
10.71
10.52
9.20
7.24
5.25
3.63
2.51
1.69
0.88
-0.12
-1.28
-2.41
-3.28
-3.81
-4.14
-4.50
-5.11
-6.01
-7.08
-8.06
-8.67
-8.78
-8.42
-7.68
-6.56
-5.19
-3.72
-2.22
-0.72
0.74
2.10
3.27
4.11
4.53
4.53
4.18
3.64
3.03
2.40
1.72
0.89
-0.10
-1.18
-2.18
-2.85
-2.99
-2.57
-1.79
-0.93
-0.19
0.42
1.01
1.69
2.55
3.57
4.70
5.85
6.83
7.48
7.71
7.42
6.55
5.09
3.11
0.82
-1.42
-3.24
-4.35
-4.63
-4.18
-3.21
-2.00
-0.79
0.32
1.32
2.23
3.05
3.72
4.12
4.16
3.65
2.42
0.39
-2.37
-5.59
-8.90
-11.86
-14.10
-14.98
-14.15
-11.79
-8.64
-5.49
-2.80
-0.58
1.29
2.93
4.35
5.49
6.30
6.82
7.22
7.68
8.28
8.96
9.60
10.07
9.86
8.88
7.29
5.41
3.55
1.88
0.42
-0.82
-1.89
-2.88
-3.79
-4.62
-5.31
-5.77
-5.96
-5.88
-5.59
-5.16
-4.73
-4.25
-3.73
-3.19
-2.66
-2.19
-1.87
-1.75
-1.80
-1.98
-2.12
-2.16
-2.06
-1.89
-1.73
-1.63
-1.57
-1.45
-1.14
-0.50
0.55
2.02
3.87
5.99
8.20
10.27
11.96
13.07
13.49
13.20
12.19
10.46
8.01
4.88
1.21
-2.72
-6.55
-9.87
-12.38
-13.89
-14.36
-13.88
-12.60
-10.70
-8.40
-5.95
-3.57
-1.46
0.26
1.57
2.47
2.97
3.20
3.29
3.30
3.23
3.00
2.52
1.77
0.77
-0.34
-1.42
-2.26
-2.74
-2.75
-2.32
-1.56
-0.68
0.09
0.58
0.76
0.69
0.47
0.22
0.04
-0.01
0.08
0.29
0.57
0.83
0.99
0.97
0.75
0.35
-0.15
-0.68
-1.19
-1.65
-2.07
-2.40
-2.57
-2.52
-2.22
-1.69
-0.95
-0.12
0.66
1.25
1.54
1.54
1.35
1.18
1.19
1.47
1.94
2.48
2.94
3.20
3.22
3.08
2.85
2.63
2.49
2.45
2.48
2.51
2.50
2.41
2.21
1.94
1.55
1.06
0.50
-0.10
-0.71
-1.30
-1.81
-2.20
-2.44
-2.52
-2.44
-2.24
-1.97
-1.66
-1.29
-0.86
-0.39
0.03
0.28
0.27
-0.01
-0.47
-0.97
-1.30
-1.34
-1.08
-0.59
-0.02
0.49
0.82
0.95
0.89
0.69
0.39
0.02
-0.35
-0.63
-0.75
-0.70
-0.57
-0.53
-0.74
-1.24
-1.94
-2.59
-2.96
-2.94
-2.54
-1.93
-1.23
-0.52
0.21
0.96
1.68
2.21
2.45
2.38
2.17
2.01
2.00
2.07
1.99
1.63
1.09
0.73
0.87
1.55
2.50
3.25
3.42
2.90
1.89
0.75
-0.19
-0.81
-1.12
-1.22
-1.16
-1.00
-0.80
-0.64
-0.64
-0.88
-1.32
-1.81
-2.13
-2.17
-1.93
-1.53
-1.14
-0.84
-0.64
-0.45
-0.24
-0.09
-0.15
-0.53
-1.18
-1.91
-2.45
-2.66
-2.53
-2.23
-1.91
-1.63
-1.33
-0.90
-0.28
0.47
1.18
1.73
2.10
2.37
2.59
2.77
2.80
2.59
2.14
1.60
1.22
1.14
1.43
1.94
2.48
2.88
3.10
3.28
3.51
3.88
4.29
4.59
4.64
4.38
3.87
3.23
2.63
2.14
1.76
1.45
1.10
0.66
0.08
-0.63
-1.42
-2.25
-3.13
-4.08
-5.10
-6.19
-7.28
-8.29
-9.08
-9.54
-9.60
-9.23
-8.48
-7.40
-6.12
-4.71
-3.23
-1.66
-0.00
1.68
3.26
4.52
5.25
5.34
4.88
4.07
3.25
2.67
2.46
2.58
2.85
3.14
3.36
3.52
3.63
3.66
3.47
2.87
1.74
0.02
-2.13
-4.45
-6.63
-8.42
-9.65
-10.32
-10.57
-10.46
-10.14
-9.75
-9.41
-9.09
-8.62
-7.71
-6.12
-3.76
-0.76
2.44
5.53
8.16
10.07
11.10
11.29
10.80
9.91
8.97
8.19
7.57
7.00
6.25
5.09
3.45
1.49
-0.48
-2.04
-2.97
-3.20
-2.93
-2.43
-1.95
-1.60
-1.21
-0.63
0.25
1.36
2.43
3.13
3.30
3.05
2.70
2.70
3.26
4.29
5.34
5.85
5.38
3.90
1.86
-0.07
-1.24
-1.41
-0.83
-0.10
0.13
-0.42
-1.57
-2.67
-3.07
-2.41
-0.87
0.89
2.14
2.39
1.77
0.85
0.41
0.97
2.53
4.62
6.51
7.70
8.13
8.22
8.49
9.33
10.76
12.49
14.11
15.25
15.81
15.82
15.39
14.67
13.84
13.15
12.91
13.34
14.40
15.78
17.24
18.62
19.96
21.42
23.12
25.23
28.05
31.99
37.28
43.39
48.58
50.07
44.93
31.52
10.65
-14.25
-38.31
-57.08
-68.23
-72.09
-70.90
-67.30
-63.07
-58.75
-54.10
-48.97
-43.70
-39.04
-35.61
-33.51
-32.24
-31.09
-29.40
-27.02
-24.24
-21.59
-19.50
-18.09
-17.19
-16.51
-15.88
-15.34
-15.10
-15.34
-16.03
-16.86
-17.38
-17.25
-16.54
-15.81
-15.85
-17.27
-20.14
-23.87
-27.38
-29.81
-30.63
-30.11
-29.15
-28.81
-29.94
-33.23
-39.16
-47.68
-57.61
-66.03
-68.62
-61.53
-43.27
-15.92
15.06
42.84
62.06
70.86
71.04
66.53
60.93
55.94
51.53
46.83
41.43
35.97
31.63
28.79
27.76
28.03
27.98
26.60
23.87
20.56
17.75
16.27
16.34
17.60
19.18
20.20
20.32
19.69
18.79
18.13
18.00
18.34
18.98
19.66
20.27
21.04
22.26
24.10
26.43
28.96
31.27
33.17
34.67
36.03
37.76
40.49
44.85
51.22
59.27
67.54
73.59
74.49
68.04
53.89
33.90
11.65
-8.91
-24.90
-35.30
-40.83
-43.06
-43.45
-42.74
-41.19
-38.86
-36.04
-33.29
-31.22
-30.13
-29.78
-29.59
-28.84
-27.13
-24.54
-21.56
-18.90
-17.09
-16.28
-16.21
-16.36
-16.20
-15.42
-14.04
-12.37
-10.86
-9.91
-9.65
-9.96
-10.44
-10.68
-10.39
-9.52
-8.25
-6.88
-5.64
-4.59
-3.62
-2.57
-1.35
-0.03
1.22
2.22
2.88
3.23
3.40
3.49
3.54
3.56
3.53
3.45
3.34
3.18
2.92
2.44
1.64
0.54
-0.71
-1.84
-2.64
-2.99
-2.96
-2.72
-2.44
-2.23
-2.06
-1.86
-1.58
-1.22
-0.83
-0.51
-0.27
-0.13
-0.05
-0.03
-0.08
-0.21
-0.42
-0.64
-0.78
-0.75
-0.53
-0.16
0.24
0.56
0.72
0.72
0.63
0.54
0.52
0.58
0.69
0.80
0.87
0.91
0.96
1.04
1.17
1.32
1.44
1.48
1.45
1.38
1.34
1.37
1.47
1.62
1.75
1.79
1.74
1.63
1.51
1.47
1.58
1.84
2.25
2.71
3.13
3.41
3.48
3.32
2.93
2.36
1.67
0.90
0.06
-0.86
-1.89
-3.05
-4.30
-5.55
-6.66
-7.47
-7.92
-7.99
-7.74
-7.23
-6.61
-5.97
-5.35
-4.77
-4.30
-4.02
-4.01
-4.27
-4.68
-5.08
-5.25
-5.01
-4.32
-3.29
-2.09
-0.89
0.23
1.41
2.62
3.65
4.24
4.31
4.03
3.67
3.41
3.36
3.54
3.80
4.06
4.20
4.14
3.88
3.38
2.70
2.00
1.49
1.24
1.19
1.16
0.91
0.33
-0.53
-1.46
-2.24
-2.74
-3.00
-3.10
-3.09
-2.86
-2.34
-1.53
-0.57
0.27
0.76
0.83
0.62
0.36
0.22
0.25
0.34
0.37
0.27
0.03
-0.25
-0.49
-0.59
-0.44
0.04
0.87
2.01
3.31
4.57
5.60
6.25
6.48
6.33
5.91
5.36
4.85
4.45
4.15
3.82
3.27
2.37
1.15
-0.17
-1.27
-1.83
-1.76
-1.24
-0.56
-0.04
0.14
-0.06
-0.59
-1.39
-2.38
-3.43
-4.37
-4.98
-5.09
-4.70
-4.05
-3.53
-3.48
-3.97
-4.74
-5.37
-5.47
-5.01
-4.26
-3.68
-3.59
-4.04
-4.66
-4.93
-4.42
-3.05
-1.14
0.78
2.29
3.07
3.13
2.82
2.58
2.70
3.11
3.39
3.19
2.35
1.04
-0.36
-1.47
-2.16
-2.49
-2.62
-2.74
-2.86
-2.97
-3.02
-2.91
-2.57
-1.97
-1.11
-0.04
1.11
2.16
2.93
3.36
3.56
3.69
3.84
3.96
3.90
3.54
2.92
2.21
1.66
1.42
1.48
1.65
1.72
1.59
1.28
0.92
0.64
0.54
0.59
0.71
0.81
0.82
0.72
0.54
0.32
0.12
-0.01
-0.05
0.01
0.12
0.28
0.45
0.62
0.81
1.02
1.22
1.37
1.35
1.12
0.72
0.27
-0.05
-0.14
-0.00
0.21
0.32
0.22
-0.05
-0.36
-0.55
-0.54
-0.35
-0.08
0.14
0.29
0.40
0.52
0.66
0.77
0.73
0.46
-0.06
-0.77
-1.50
-2.04
-2.18
-1.82
-1.07
-0.12
0.74
1.31
1.51
1.42
1.15
0.82
0.48
0.13
-0.24
-0.62
-0.95
-1.20
-1.36
-1.51
-1.73
-2.05
-2.51
-3.07
-3.71
-4.40
-4.93
-5.07
-4.65
-3.69
-2.41
-1.12
-0.03
0.79
1.40
1.96
2.52
3.03
3.45
3.70
3.75
3.67
3.53
3.37
3.22
3.05
2.86
2.62
2.32
1.95
1.45
0.82
0.12
-0.49
-0.86
-0.94
-0.75
-0.43
-0.12
0.14
0.37
0.64
0.98
1.30
1.45
1.28
0.82
0.21
-0.31
-0.57
-0.56
-0.40
-0.30
-0.41
-0.74
-1.21
-1.66
-1.97
-2.09
-2.05
-1.90
-1.70
-1.53
-1.45
-1.48
-1.60
-1.69
-1.65
-1.40
-0.98
-0.53
-0.20
-0.11
-0.22
-0.37
-0.36
-0.05
0.51
1.18
1.72
1.98
1.95
1.77
1.65
1.77
2.18
2.80
3.43
3.88
4.06
3.97
3.64
3.12
2.40
1.47
0.42
-0.53
-1.12
-1.17
-0.74
-0.13
0.27
0.23
-0.17
-0.59
-0.62
-0.05
1.01
2.19
3.03
3.24
2.83
2.02
1.08
0.24
-0.48
-1.16
-1.91
-2.78
-3.70
-4.55
-5.22
-5.71
-6.16
-6.73
-7.44
-8.12
-8.47
-8.17
-7.12
-5.49
-3.67
-2.09
-1.00
-0.41
-0.11
0.17
0.62
1.31
2.16
3.00
3.68
4.07
4.12
3.92
3.55
3.13
2.74
2.36
1.93
1.45
0.96
0.60
0.53
0.76
1.12
1.33
1.16
0.58
-0.20
-0.79
-0.92
-0.58
-0.02
0.40
0.38
-0.09
-0.78
-1.40
-1.72
-1.76
-1.67
-1.65
-1.79
-2.05
-2.29
-2.34
-2.08
-1.43
-0.39
1.05
2.79
4.63
6.28
7.35
7.55
6.73
5.03
2.83
0.69
-0.89
-1.63
-1.51
-0.84
-0.05
0.49
0.61
0.37
-0.05
-0.42
-0.68
-0.87
-1.13
-1.54
-2.07
-2.60
-2.98
-3.13
-3.03
-2.79
-2.50
-2.23
-1.99
-1.71
-1.32
-0.76
-0.05
0.71
1.37
1.82
2.00
1.93
1.70
1.36
0.97
0.56
0.10
-0.37
-0.82
-1.21
-1.49
-1.64
-1.63
-1.43
-1.06
-0.57
-0.10
0.18
0.14
-0.24
-0.85
-1.51
-2.04
-2.34
-2.44
-2.44
-2.41
-2.38
-2.31
-2.10
-1.69
-1.06
-0.28
0.55
1.30
1.91
2.34
2.59
2.68
2.58
2.28
1.79
1.18
0.59
0.15
-0.07
-0.08
0.04
0.13
0.13
0.02
-0.13
-0.21
-0.16
0.02
0.29
0.60
0.92
1.25
1.56
1.79
1.87
1.75
1.44
1.06
0.76
0.64
0.76
1.07
1.47
1.87
2.21
2.46
2.61
2.62
2.50
2.26
1.99
1.78
1.72
1.81
1.99
2.19
2.33
2.36
2.24
1.96
1.49
0.86
0.16
-0.52
-1.16
-1.79
-2.52
-3.45
-4.52
-5.60
-6.46
-6.92
-6.94
-6.62
-6.12
-5.54
-4.93
-4.26
-3.55
-2.87
-2.28
-1.78
-1.30
-0.67
0.23
1.37
2.55
3.50
3.98
3.90
3.38
2.68
2.09
1.79
1.79
1.94
1.99
1.74
1.15
0.29
-0.63
-1.43
-1.94
-2.12
-1.98
-1.56
-0.89
-0.04
0.88
1.72
2.34
2.64
2.66
2.50
2.35
2.30
2.37
2.48
2.53
2.45
2.22
1.82
1.21
0.38
-0.65
-1.70
-2.49
-2.77
-2.44
-1.65
-0.74
-0.13
-0.05
-0.51
-1.25
-1.93
-2.29
-2.24
-1.87
-1.32
-0.79
-0.40
-0.25
-0.34
-0.55
-0.75
-0.74
-0.43
0.17
0.97
1.84
2.67
3.42
4.07
4.53
4.70
4.40
3.53
2.13
0.41
-1.30
-2.67
-3.41
-3.47
-2.89
-1.90
-0.73
0.39
1.34
1.99
2.24
1.90
0.83
-0.91
-2.99
-4.86
-5.93
-5.88
-4.84
-3.36
-2.07
-1.40
-1.40
-1.73
-1.91
-1.64
-0.91
0.03
0.81
1.17
1.08
0.70
0.27
-0.03
-0.13
-0.11
-0.08
-0.13
-0.21
-0.17
0.13
0.74
1.54
2.30
2.80
2.95
2.79
2.49
2.17
1.91
1.66
1.36
0.99
0.56
0.13
-0.25
-0.55
-0.75
-0.82
-0.74
-0.50
-0.15
0.22
0.51
0.61
0.53
0.28
-0.05
-0.39
-0.64
-0.73
-0.60
-0.24
0.28
0.78
1.02
0.78
0.00
-1.18
-2.47
-3.51
-4.03
-3.95
-3.36
-2.49
-1.56
-0.74
-0.10
0.42
0.87
1.29
1.69
2.09
2.52
3.02
3.62
4.26
4.85
5.29
5.46
5.31
4.85
4.13
3.16
1.97
0.49
-1.16
-2.78
-4.05
-4.66
-4.46
-3.61
-2.52
-1.71
-1.56
-2.10
-3.02
-3.81
-4.05
-3.64
-2.79
-1.91
-1.29
-1.03
-0.99
-0.96
-0.76
-0.36
0.14
0.60
0.97
1.23
1.41
1.53
1.60
1.63
1.66
1.72
1.82
1.89
1.82
1.54
1.00
0.25
-0.62
-1.46
-2.10
-2.40
-2.30
-1.86
-1.22
-0.60
-0.16
0.03
0.04
-0.00
0.06
0.30
0.72
1.24
1.75
2.19
2.60
2.97
3.33
3.58
3.58
3.20
2.43
1.39
0.32
-0.57
-1.20
-1.62
-1.93
-2.18
-2.26
-2.08
-1.57
-0.85
-0.18
0.19
0.14
-0.22
-0.69
-1.09
-1.35
-1.49
-1.57
-1.59
-1.52
-1.29
-0.92
-0.45
0.03
0.38
0.56
0.59
0.50
0.30
0.00
-0.42
-0.95
-1.50
-1.92
-2.05
-1.84
-1.30
-0.57
0.25
1.03
1.75
2.38
2.83
2.95
2.58
1.71
0.49
-0.68
-1.42
-1.44
-0.74
0.45
1.73
2.78
3.43
3.74
3.87
3.98
4.08
4.08
3.83
3.28
2.54
1.86
1.48
1.50
1.82
2.13
2.08
1.48
0.38
-0.96
-2.17
-3.00
-3.39
-3.50
-3.52
-3.57
-3.60
-3.46
-3.03
-2.29
-1.47
-0.83
-0.56
-0.67
-0.97
-1.19
-1.13
-0.78
-0.24
0.31
0.72
0.92
0.85
0.47
-0.17
-0.95
-1.66
-2.07
-2.05
-1.65
-1.13
-0.81
-0.96
-1.61
-2.58
-3.57
-4.31
-4.64
-4.58
-4.23
-3.68
-3.06
-2.44
-1.89
-1.43
-0.99
-0.45
0.33
1.39
2.60
3.75
4.62
5.17
5.47
5.73
6.11
6.63
7.20
7.67
7.92
7.88
7.42
6.34
4.51
2.03
-0.64
-2.81
-3.83
-3.50
-2.18
-0.67
0.24
0.09
-1.03
-2.58
-3.94
-4.70
-4.80
-4.48
-4.01
-3.55
-3.10
-2.51
-1.72
-0.76
0.16
0.83
1.08
0.91
0.52
0.20
0.19
0.63
1.38
2.24
2.98
3.47
3.75
4.00
4.39
4.94
5.37
5.21
4.05
1.81
-1.13
-4.12
-6.50
-7.99
-8.66
-8.83
-8.74
-8.46
-7.81
-6.60
-4.91
-3.08
-1.60
-0.78
-0.58
-0.64
-0.50
0.07
0.97
1.90
2.49
2.53
2.07
1.33
0.61
0.14
-0.02
0.11
0.46
0.91
1.36
1.67
1.65
1.18
0.28
-0.87
-1.92
-2.52
-2.41
-1.66
-0.56
0.47
1.09
1.15
0.79
0.25
-0.16
-0.30
-0.12
0.25
0.64
0.85
0.74
0.28
-0.47
-1.25
-1.73
-1.57
-0.63
0.93
2.72
4.18
4.90
4.75
3.88
2.68
1.51
0.61
0.05
-0.26
-0.42
-0.49
-0.49
-0.43
-0.36
-0.34
-0.44
-0.66
-0.92
-1.13
-1.17
-1.04
-0.84
-0.64
-0.51
-0.42
-0.32
-0.15
0.06
0.21
0.19
-0.04
-0.46
-0.98
-1.48
-1.85
-2.00
-1.85
-1.38
-0.67
0.09
0.63
0.72
0.38
-0.14
-0.43
-0.12
0.91
2.39
3.86
4.83
4.99
4.35
3.11
1.59
0.13
-1.03
-1.76
-2.04
-1.95
-1.69
-1.46
-1.42
-1.52
-1.73
-1.89
-1.85
-1.50
-0.75
0.50
2.22
4.07
5.36
5.34
3.63
0.53
-2.88
-5.22
-5.48
-3.54
-0.28
2.94
4.91
5.18
4.08
2.45
1.10
0.35
0.10
-0.09
-0.55
-1.33
-2.21
-2.84
-2.98
-2.50
-1.71
-0.98
-0.63
-0.71
-0.96
-0.99
-0.55
0.26
1.08
1.45
1.27
0.75
0.35
0.39
0.84
1.27
1.16
0.20
-1.48
-3.37
-4.88
-5.65
-5.67
-5.18
-4.45
-3.60
-2.64
-1.56
-0.41
0.59
1.14
1.05
0.39
-0.61
-1.46
-1.75
-1.28
-0.13
1.30
2.56
3.32
3.53
3.40
3.31
3.47
3.89
4.36
4.56
4.28
3.56
2.66
1.97
1.86
2.47
3.60
4.82
5.65
5.83
5.43
4.80
4.26
3.97
3.73
3.18
2.07
0.47
-1.24
-2.65
-3.60
-4.30
-5.04
-5.96
-6.80
-7.17
-6.80
-5.78
-4.50
-3.41
-2.74
-2.35
-1.98
-1.35
-0.40
0.68
1.58
2.02
1.92
1.30
0.31
-0.89
-2.11
-3.09
-3.73
-3.96
-3.86
-3.57
-3.21
-2.77
-2.22
-1.47
-0.51
0.61
1.79
2.85
3.62
3.96
3.80
3.22
2.49
1.89
1.76
2.28
3.41
4.91
6.34
7.23
7.21
6.15
4.09
1.32
-1.80
-4.79
-7.12
-8.33
-8.20
-6.84
-4.77
-2.71
-1.35
-1.07
-1.76
-2.90
-3.79
-3.88
-3.01
-1.46
0.21
1.43
1.87
1.57
0.85
0.11
-0.38
-0.64
-0.83
-1.14
-1.56
-1.88
-1.83
-1.19
-0.07
1.21
2.25
2.75
2.73
2.44
2.24
2.43
3.02
3.74
4.23
4.13
3.34
2.03
0.57
-0.64
-1.35
-1.51
-1.29
-0.96
-0.77
-0.90
-1.41
-2.23
-3.15
-3.88
-4.14
-3.76
-2.76
-1.37
0.10
1.33
2.16
2.59
2.79
2.96
3.23
3.67
4.15
4.47
4.41
3.81
2.69
1.22
-0.30
-1.59
-2.46
-2.90
-2.95
-2.77
-2.43
-1.97
-1.42
-0.87
-0.47
-0.32
-0.39
-0.48
-0.32
0.26
1.25
2.39
3.30
3.69
3.48
2.76
1.80
0.88
0.23
0.00
0.21
0.72
1.23
1.41
1.01
0.02
-1.32
-2.58
-3.39
-3.54
-3.13
-2.46
-1.85
-1.47
-1.25
-1.12
-0.97
-0.88
-0.92
-1.10
-1.25
-1.11
-0.49
0.51
1.51
2.04
1.93
1.35
0.87
0.98
1.84
3.09
4.08
4.25
3.43
1.89
0.15
-1.31
-2.25
-2.67
-2.75
-2.67
-2.49
-2.19
-1.71
-1.03
-0.19
0.69
1.42
1.83
1.80
1.42
0.83
0.41
0.53
1.41
3.12
5.42
7.84
9.59
9.78
7.82
3.77
-1.53
-6.61
-9.96
-10.73
-8.98
-5.70
-2.26
0.12
0.81
-0.10
-2.00
-4.06
-5.60
-6.22
-5.90
-4.92
-3.71
-2.69
-2.02
-1.64
-1.16
-0.43
0.47
1.29
1.77
1.91
1.88
1.81
1.60
0.97
-0.25
-1.85
-3.23
-3.72
-2.94
-1.11
1.03
2.68
3.45
3.41
2.99
2.49
1.94
1.13
-0.02
-1.29
-2.20
-2.26
-1.41
-0.04
1.26
1.85
1.56
0.62
-0.46
-1.17
-1.26
-0.79
-0.03
0.75
1.39
1.91
2.40
2.91
3.41
3.78
3.87
3.63
3.14
2.57
2.10
1.84
1.79
1.85
1.85
1.69
1.38
1.02
0.78
0.78
1.02
1.37
1.61
1.61
1.36
1.00
0.76
0.71
0.75
0.60
-0.03
-1.28
-3.05
-5.01
-6.77
-8.02
-8.63
-8.62
-8.11
-7.27
-6.28
-5.27
-4.33
-3.50
-2.77
-2.16
-1.71
-1.44
-1.35
-1.33
-1.13
-0.44
0.89
2.82
4.97
6.81
7.84
7.81
6.85
5.36
3.79
2.50
1.63
1.14
0.92
0.92
1.12
1.45
1.73
1.67
1.03
-0.13
-1.47
-2.47
-2.70
-2.05
-0.84
0.37
1.04
0.92
0.13
-1.00
-2.07
-2.84
-3.32
-3.65
-3.99
-4.37
-4.74
-4.95
-4.84
-4.35
-3.57
-2.71
-2.02
-1.63
-1.54
-1.55
-1.44
-1.09
-0.53
0.10
0.59
0.82
0.79
0.61
0.40
0.27
0.28
0.43
0.71
1.12
1.68
2.36
3.09
3.78
4.28
4.51
4.46
4.24
4.07
4.17
4.64
5.36
5.96
5.99
5.12
3.39
1.15
-0.99
-2.53
-3.27
-3.32
-2.97
-2.44
-1.69
-0.61
0.83
2.36
3.50
3.81
3.18
1.92
0.56
-0.36
-0.67
-0.52
-0.24
-0.14
-0.29
-0.59
-0.92
-1.18
-1.44
-1.77
-2.23
-2.77
-3.30
-3.65
-3.69
-3.35
-2.67
-1.74
-0.75
0.13
0.78
1.16
1.28
1.18
0.89
0.45
-0.11
-0.72
-1.31
-1.76
-1.98
-1.91
-1.56
-0.99
-0.31
0.33
0.80
1.01
0.91
0.56
0.07
-0.40
-0.69
-0.68
-0.35
0.23
0.86
1.31
1.39
1.05
0.51
0.08
0.11
0.75
1.86
3.07
3.91
4.09
3.55
2.49
1.24
0.05
-0.95
-1.77
-2.43
-2.94
-3.22
-3.20
-2.85
-2.29
-1.70
-1.25
-1.03
-0.93
-0.78
-0.34
0.50
1.64
2.83
3.76
4.23
4.22
3.89
3.45
3.04
2.69
2.36
1.99
1.61
1.26
1.01
0.82
0.56
0.13
-0.49
-1.21
-1.83
-2.18
-2.18
-1.88
-1.46
-1.11
-0.98
-1.09
-1.37
-1.73
-2.05
-2.29
-2.46
-2.60
-2.74
-2.84
-2.85
-2.71
-2.40
-1.93
-1.33
-0.68
-0.03
0.57
1.06
1.36
1.45
1.33
1.10
0.89
0.82
0.93
1.18
1.48
1.73
1.85
1.80
1.57
1.18
0.66
0.09
-0.40
-0.66
-0.60
-0.24
0.31
0.85
1.21
1.29
1.07
0.65
0.12
-0.42
-0.88
-1.23
-1.44
-1.54
-1.54
-1.50
-1.46
-1.43
-1.41
-1.33
-1.15
-0.84
-0.41
0.10
0.60
1.01
1.24
1.29
1.18
0.96
0.70
0.48
0.36
0.36
0.50
0.74
1.01
1.26
1.44
1.55
1.56
1.48
1.31
1.05
0.79
0.56
0.46
0.53
0.75
1.07
1.44
1.82
2.15
2.31
2.13
1.51
0.47
-0.71
-1.65
-2.03
-1.78
-1.11
-0.38
0.13
0.39
0.61
1.06
1.81
2.61
3.09
2.92
2.10
0.91
-0.26
-1.10
-1.59
-1.83
-2.08
-2.51
-3.14
-3.79
-4.20
-4.17
-3.68
-2.96
-2.45
-2.50
-3.26
-4.50
-5.74
-6.47
-6.40
-5.64
-4.54
-3.43
-2.42
-1.50
-0.62
0.02
0.16
-0.35
-1.36
-2.38
-2.83
-2.49
-1.57
-0.63
-0.24
-0.58
-1.32
-1.86
-1.62
-0.43
1.47
3.55
5.31
6.45
6.86
6.68
6.07
5.27
4.45
3.64
2.81
1.81
0.61
-0.67
-1.66
-2.07
-1.69
-0.70
0.45
1.29
1.54
1.30
0.90
0.73
0.94
1.42
1.82
1.85
1.41
0.61
-0.21
-0.71
-0.67
-0.12
0.60
1.11
1.05
0.43
-0.51
-1.39
-1.91
-1.97
-1.57
-0.84
0.11
1.08
1.89
2.26
2.04
1.27
0.20
-0.78
-1.37
-1.50
-1.25
-0.74
-0.02
0.87
1.74
2.17
1.66
-0.03
-2.60
-5.24
-6.99
-7.20
-5.88
-3.64
-1.33
0.41
1.39
1.85
2.18
2.63
3.15
3.61
3.85
3.86
3.79
3.72
3.64
3.40
2.80
1.78
0.45
-0.95
-2.16
-2.95
-3.18
-2.83
-1.96
-0.81
0.21
0.69
0.40
-0.55
-1.78
-2.74
-3.04
-2.55
-1.41
0.13
1.77
3.27
4.35
4.67
3.96
2.26
0.06
-1.80
-2.48
-1.64
0.31
2.49
3.97
4.24
3.42
2.03
0.60
-0.67
-1.81
-2.98
-4.15
-4.98
-5.04
-4.11
-2.40
-0.46
1.00
1.66
1.56
1.14
0.90
1.16
1.82
2.48
2.71
2.23
1.18
-0.09
-1.09
-1.53
-1.34
-0.73
-0.07
0.31
0.18
-0.38
-1.14
-1.72
-1.85
-1.55
-1.05
-0.72
-0.84
-1.44
-2.15
-2.55
-2.24
-1.12
0.49
2.05
3.01
3.12
2.40
1.17
-0.19
-1.32
-2.06
-2.39
-2.41
-2.26
-2.00
-1.73
-1.44
-1.14
-0.84
-0.54
-0.27
-0.01
0.32
0.86
1.75
3.09
4.76
6.42
7.53
7.63
6.55
4.45
1.79
-0.96
-3.36
-5.16
-6.20
-6.41
-5.83
-4.58
-3.02
-1.58
-0.65
-0.41
-0.72
-1.25
-1.58
-1.49
-0.95
-0.13
0.72
1.34
1.56
1.36
0.85
0.27
-0.22
-0.47
-0.44
-0.16
0.37
1.12
2.01
2.86
3.46
3.53
3.00
2.03
1.03
0.42
0.34
0.63
0.85
0.65
-0.05
-0.97
-1.63
-1.74
-1.36
-0.88
-0.71
-0.95
-1.29
-1.21
-0.42
0.83
1.87
1.96
0.91
-0.75
-2.04
-2.17
-1.02
0.75
2.07
2.15
0.99
-0.72
-2.01
-2.25
-1.48
-0.25
0.75
1.12
0.91
0.50
0.24
0.30
0.59
0.88
0.95
0.67
0.06
-0.79
-1.69
-2.43
-2.78
-2.56
-1.68
-0.19
1.73
3.66
5.10
5.56
4.74
2.75
0.09
-2.49
-4.31
-5.05
-4.77
-3.89
-2.86
-1.96
-1.24
-0.57
0.20
1.09
1.98
2.64
2.89
2.67
2.10
1.42
1.02
1.17
1.89
2.91
3.77
4.04
3.43
1.90
-0.28
-2.65
-4.64
-5.72
-5.66
-4.54
-2.76
-0.89
0.60
1.51
1.93
2.08
2.07
1.91
1.53
0.94
0.31
-0.09
-0.07
0.28
0.74
1.04
1.07
0.87
0.58
0.28
-0.01
-0.35
-0.73
-1.01
-1.01
-0.60
0.18
1.11
1.93
2.46
2.59
2.39
1.90
1.18
0.23
-0.89
-2.00
-2.85
-3.24
-3.08
-2.50
-1.78
-1.18
-0.82
-0.61
-0.39
0.01
0.56
1.11
1.47
1.51
1.23
0.70
-0.01
-0.83
-1.59
-2.19
-2.51
-2.53
-2.37
-2.11
-1.86
-1.66
-1.47
-1.30
-1.19
-1.21
-1.44
-1.88
-2.47
-3.12
-3.73
-4.19
-4.38
-4.16
-3.43
-2.29
-1.02
0.04
0.69
0.98
1.20
1.67
2.49
3.49
4.30
4.59
4.29
3.61
2.92
2.59
2.72
3.24
3.87
4.42
4.75
4.78
4.37
3.37
1.74
-0.41
-2.70
-4.60
-5.71
-5.87
-5.24
-4.16
-2.88
-1.55
-0.14
1.32
2.66
3.59
3.89
3.58
2.89
2.10
1.42
0.86
0.29
-0.29
-0.80
-1.08
-0.97
-0.47
0.26
0.96
1.42
1.53
1.25
0.58
-0.41
-1.62
-2.86
-3.89
-4.47
-4.53
-4.10
-3.32
-2.41
-1.57
-0.94
-0.59
-0.48
-0.51
-0.54
-0.45
-0.22
0.08
0.33
0.46
0.50
0.54
0.73
1.05
1.42
1.65
1.63
1.30
0.81
0.39
0.23
0.39
0.76
1.12
1.23
1.02
0.55
-0.01
-0.41
-0.49
-0.20
0.33
0.92
1.35
1.52
1.50
1.43
1.43
1.50
1.54
1.39
1.01
0.47
-0.04
-0.38
-0.53
-0.59
-0.72
-0.98
-1.31
-1.55
-1.60
-1.51
-1.43
-1.51
-1.76
-2.05
-2.19
-2.05
-1.65
-1.15
-0.72
-0.50
-0.44
-0.47
-0.50
-0.53
-0.59
-0.72
-0.88
-0.95
-0.83
-0.49
-0.04
0.32
0.47
0.40
0.25
0.21
0.43
0.96
1.76
2.74
3.77
4.64
5.16
5.20
4.74
3.92
3.00
2.19
1.57
1.05
0.48
-0.24
-1.05
-1.77
-2.22
-2.34
-2.26
-2.19
-2.30
-2.60
-2.95
-3.09
-2.88
-2.31
-1.58
-0.99
-0.77
-0.95
-1.33
-1.61
-1.55
-1.07
-0.31
0.48
1.07
1.36
1.30
0.96
0.41
-0.30
-1.06
-1.77
-2.34
-2.71
-2.86
-2.78
-2.49
-1.96
-1.24
-0.39
0.41
1.00
1.28
1.22
0.89
0.39
-0.14
-0.61
-0.89
-0.90
-0.67
-0.30
0.03
0.15
-0.04
-0.43
-0.74
-0.64
0.15
1.65
3.57
5.39
6.55
6.80
6.29
5.52
5.03
5.06
5.32
5.25
4.43
2.85
1.03
-0.32
-0.77
-0.43
0.16
0.39
0.04
-0.68
-1.26
-1.32
-0.82
-0.14
0.28
0.14
-0.54
-1.52
-2.44
-3.08
-3.33
-3.25
-2.91
-2.40
-1.84
-1.32
-0.98
-0.89
-1.02
-1.24
-1.38
-1.32
-0.95
-0.36
0.37
1.09
1.64
1.91
1.82
1.35
0.52
-0.63
-1.99
-3.35
-4.48
-5.08
-5.08
-4.54
-3.63
-2.55
-1.42
-0.32
0.62
1.12
0.89
-0.15
-1.76
-3.24
-3.92
-3.40
-1.79
0.28
2.02
2.94
3.04
2.61
2.07
1.64
1.33
1.10
0.97
1.03
1.30
1.60
1.58
0.96
-0.32
-1.80
-2.80
-2.67
-1.20
1.21
3.74
5.52
6.12
5.57
4.32
2.88
1.53
0.35
-0.70
-1.61
-2.21
-2.36
-2.00
-1.32
-0.58
-0.09
0.05
-0.11
-0.37
-0.60
-0.76
-0.91
-1.17
-1.59
-2.13
-2.69
-3.07
-3.15
-2.90
-2.33
-1.52
-0.55
0.43
1.25
1.74
1.80
1.51
1.05
0.71
0.76
1.25
2.05
2.92
3.62
4.15
4.58
5.06
5.52
5.69
5.21
3.88
1.86
-0.33
-1.99
-2.61
-2.16
-1.06
-0.00
0.44
0.11
-0.72
-1.55
-2.04
-2.16
-2.20
-2.48
-3.15
-3.99
-4.53
-4.30
-3.13
-1.22
0.86
2.55
3.52
3.82
3.75
3.60
3.41
3.03
2.25
1.07
-0.22
-1.17
-1.49
-1.21
-0.70
-0.52
-0.97
-2.01
-3.19
-3.95
-3.95
-3.18
-1.98
-0.78
0.09
0.52
0.63
0.60
0.61
0.67
0.69
0.62
0.45
0.24
0.13
0.16
0.36
0.66
0.93
1.04
0.90
0.56
0.16
-0.10
-0.07
0.29
0.87
1.50
2.01
2.33
2.44
2.42
2.37
2.34
2.30
2.15
1.81
1.25
0.54
-0.20
-0.84
-1.34
-1.80
-2.35
-3.07
-3.96
-4.83
-5.44
-5.62
-5.37
-4.81
-4.12
-3.44
-2.89
-2.54
-2.37
-2.30
-2.18
-1.82
-1.16
-0.34
0.39
0.79
0.80
0.56
0.28
0.12
0.08
0.09
0.11
0.22
0.58
1.22
2.00
2.56
2.60
2.12
1.42
0.98
1.09
1.64
2.15
2.14
1.36
0.06
-1.23
-2.05
-2.18
-1.78
-1.17
-0.59
-0.02
0.68
1.56
2.52
3.18
3.18
2.40
1.08
-0.30
-1.27
-1.65
-1.61
-1.44
-1.46
-1.70
-2.00
-2.08
-1.70
-0.84
0.34
1.57
2.57
3.17
3.39
3.31
3.09
2.87
2.73
2.68
2.72
2.79
2.82
2.68
2.27
1.54
0.55
-0.54
-1.50
-2.10
-2.24
-1.94
-1.35
-0.68
-0.14
0.14
0.08
-0.29
-0.85
-1.43
-1.83
-1.89
-1.59
-1.01
-0.30
0.37
0.89
1.27
1.52
1.66
1.68
1.55
1.31
1.04
0.88
0.91
1.06
1.18
1.08
0.66
-0.04
-0.87
-1.60
-2.05
-2.16
-1.97
-1.58
-1.09
-0.59
-0.16
0.13
0.24
0.21
0.17
0.26
0.59
1.12
1.71
2.16
2.35
2.28
2.07
1.85
1.65
1.41
1.01
0.40
-0.38
-1.16
-1.78
-2.15
-2.30
-2.30
-2.24
-2.13
-1.91
-1.57
-1.19
-0.83
-0.57
-0.44
-0.44
-0.57
-0.81
-1.16
-1.57
-2.00
-2.39
-2.66
-2.82
-2.91
-2.98
-3.00
-2.70
-1.91
-0.73
0.45
1.23
1.44
1.20
0.79
0.49
0.36
0.25
0.02
-0.38
-0.85
-1.14
-1.12
-0.86
-0.52
-0.29
-0.28
-0.41
-0.51
-0.49
-0.36
-0.23
-0.22
-0.37
-0.60
-0.78
-0.77
-0.47
0.25
1.35
2.61
3.57
3.69
2.69
0.70
-1.66
-3.60
-4.47
-4.09
-2.84
-1.35
-0.11
0.70
1.20
1.51
1.61
1.41
0.93
0.36
0.07
0.42
1.50
3.02
4.50
5.29
5.06
3.97
2.62
1.50
0.78
0.29
-0.16
-0.61
-0.93
-0.97
-0.67
-0.21
0.18
0.38
0.41
0.44
0.61
0.96
1.37
1.65
1.66
1.34
0.79
0.19
-0.28
-0.52
-0.52
-0.30
0.10
0.59
1.05
1.39
1.53
1.45
1.23
0.95
0.73
0.66
0.79
1.13
1.63
2.19
2.69
3.01
3.02
2.71
2.12
1.29
0.30
-0.86
-2.15
-3.50
-4.77
-5.77
-6.34
-6.38
-5.94
-5.07
-3.92
-2.56
-1.10
0.33
1.54
2.38
2.74
2.62
2.17
1.55
0.92
0.41
0.10
0.00
0.06
0.11
-0.03
-0.44
-1.09
-1.79
-2.32
-2.59
-2.68
-2.75
-2.87
-2.97
-2.81
-2.25
-1.32
-0.30
0.49
0.88
0.91
0.79
0.70
0.65
0.48
0.07
-0.61
-1.37
-1.96
-2.23
-2.17
-1.93
-1.60
-1.25
-0.85
-0.39
0.11
0.57
0.91
1.13
1.26
1.39
1.54
1.72
1.92
2.12
2.30
2.44
2.45
2.17
1.46
0.29
-1.14
-2.49
-3.41
-3.67
-3.31
-2.57
-1.76
-1.15
-0.87
-0.88
-1.05
-1.22
-1.26
-1.15
-0.95
-0.75
-0.64
-0.63
-0.62
-0.48
-0.11
0.52
1.32
2.18
3.02
3.78
4.40
4.67
4.37
3.33
1.64
-0.28
-1.84
-2.46
-1.92
-0.44
1.41
2.98
3.80
3.75
2.98
1.87
0.80
0.08
-0.16
0.07
0.58
1.14
1.51
1.61
1.49
1.32
1.27
1.43
1.76
2.14
2.45
2.57
2.42
1.93
1.12
0.10
-0.90
-1.62
-1.88
-1.71
-1.35
-1.14
-1.32
-1.95
-2.80
-3.56
-3.96
-3.92
-3.48
-2.78
-1.96
-1.13
-0.35
0.32
0.84
1.21
1.44
1.55
1.61
1.66
1.78
2.02
2.47
3.12
3.87
4.48
4.69
4.31
3.35
2.01
0.58
-0.69
-1.73
-2.60
-3.41
-4.20
-4.86
-5.20
-5.08
-4.48
-3.52
-2.44
-1.45
-0.65
-0.05
0.46
0.94
1.46
2.06
2.73
3.45
4.15
4.65
4.76
4.28
3.15
1.50
-0.37
-2.08
-3.32
-3.98
-4.15
-4.05
-3.88
-3.74
-3.53
-3.16
-2.53
-1.72
-0.88
-0.18
0.27
0.49
0.57
0.63
0.71
0.81
0.85
0.78
0.60
0.34
0.08
-0.12
-0.24
-0.33
-0.43
-0.59
-0.76
-0.85
-0.77
-0.52
-0.14
0.23
0.46
0.48
0.28
-0.08
-0.53
-1.03
-1.54
-2.06
-2.54
-2.95
-3.23
-3.30
-3.12
-2.65
-1.95
-1.14
-0.36
0.24
0.60
0.75
0.82
0.98
1.37
1.99
2.75
3.42
3.78
3.68
3.10
2.17
1.08
0.04
-0.88
-1.65
-2.31
-2.82
-3.09
-3.02
-2.56
-1.77
-0.83
0.07
0.80
1.39
1.90
2.37
2.76
2.90
2.71
2.18
1.47
0.85
0.58
0.78
1.33
1.90
2.10
1.69
0.73
-0.44
-1.33
-1.61
-1.22
-0.41
0.42
0.96
1.22
1.42
1.83
2.57
3.43
4.00
3.92
3.08
1.72
0.27
-0.83
-1.31
-1.13
-0.46
0.39
1.12
1.50
1.41
0.86
-0.05
-1.18
-2.39
-3.58
-4.71
-5.73
-6.56
-7.11
-7.27
-7.02
-6.41
-5.54
-4.54
-3.51
-2.49
-1.49
-0.52
0.43
1.34
2.20
2.96
3.54
3.82
3.78
3.47
3.03
2.66
2.54
2.62
2.79
2.83
2.63
2.20
1.74
1.48
1.43
1.39
0.96
-0.10
-1.77
-3.64
-5.17
-5.89
-5.69
-4.82
-3.73
-2.81
-2.23
-1.93
-1.72
-1.45
-1.09
-0.70
-0.36
-0.10
0.13
0.33
0.43
0.29
-0.10
-0.68
-1.19
-1.33
-0.87
0.06
1.10
1.79
1.83
1.31
0.61
0.24
0.54
1.50
2.79
3.97
4.69
4.74
4.13
3.01
1.57
0.15
-0.94
-1.38
-1.08
-0.13
1.11
2.21
2.86
2.96
2.65
2.22
1.93
1.85
1.84
1.68
1.18
0.35
-0.63
-1.46
-1.95
-2.00
-1.72
-1.28
-0.88
-0.65
-0.60
-0.68
-0.78
-0.86
-0.89
-0.91
-1.00
-1.17
-1.39
-1.56
-1.55
-1.25
-0.71
-0.06
0.53
0.94
1.16
1.23
1.25
1.23
1.15
0.99
0.78
0.59
0.51
0.61
0.82
1.05
1.16
1.08
0.83
0.49
0.15
-0.10
-0.25
-0.32
-0.35
-0.34
-0.31
-0.24
-0.11
0.08
0.31
0.52
0.69
0.81
0.88
0.94
1.03
1.11
1.14
1.01
0.67
0.15
-0.44
-0.92
-1.18
-1.17
-0.95
-0.65
-0.41
-0.29
-0.30
-0.36
-0.41
-0.42
-0.40
-0.40
-0.49
-0.64
-0.82
-0.95
-1.01
-1.02
-1.01
-1.05
-1.15
-1.25
-1.27
-1.16
-0.92
-0.63
-0.39
-0.25
-0.22
-0.23
-0.17
0.01
0.31
0.65
0.88
0.92
0.78
0.56
0.40
0.39
0.52
0.69
0.77
0.72
0.61
0.59
0.80
1.30
2.00
2.71
3.25
3.48
3.45
3.25
2.98
2.65
2.15
1.36
0.26
-1.06
-2.33
-3.29
-3.78
-3.79
-3.43
-2.80
-2.02
-1.16
-0.33
0.29
0.50
0.24
-0.42
-1.18
-1.67
-1.61
-0.97
-0.02
0.77
0.98
0.45
-0.57
-1.57
-1.99
-1.56
-0.36
1.17
2.50
3.26
3.28
2.64
1.51
0.13
-1.25
-2.36
-2.96
-2.92
-2.29
-1.26
-0.09
1.04
2.05
2.92
3.60
3.97
3.91
3.43
2.67
1.95
1.53
1.54
1.85
2.23
2.42
2.22
1.56
0.46
-0.98
-2.56
-4.01
-5.02
-5.41
-5.14
-4.42
-3.54
-2.78
-2.26
-1.93
-1.65
-1.30
-0.89
-0.52
-0.33
-0.35
-0.48
-0.60
-0.60
-0.45
-0.21
0.02
0.14
0.13
0.02
-0.13
-0.22
-0.22
-0.13
0.02
0.14
0.21
0.19
0.12
0.03
-0.03
-0.04
0.01
0.08
0.15
0.18
0.17
0.13
0.08
0.04
0.03
0.04
0.07
0.09
0.10
0.09
0.08
0.05
0.04
0.03
0.02
0.02
0.02
0.02
0.02
0.02
0.02
0.02
0.02
0.02
0.02
0.02
0.02
0.02
0.02
0.02
0.02
0.02
0.02
0.02
0.02
0.02
0.02
0.02
0.02
0.02
0.02
0.02
0.02
0.02
0.02
0.02
0.02
0.01
0.01
0.01
0.01
0.01
0.01
0.01
0.01
0.01
0.01
0.01
0.01
0.01
0.01
0.01
0.01
0.01
0.01
0.01
0.01
0.01
0.01
0.01
0.01
0.01
0.01
0.01
0.01
0.01
0.01
0.01
0.01
0.01
0.01
0.01
0.01
0.01
0.01
0.01
0.01
0.01
0.01
0.01
0.01
0.01
0.01
0.01
0.01
0.01
0.01
0.01
0.01
0.01
0.01
0.01
0.01
0.01
0.01
0.01
0.01
0.01
0.01
0.01
0.01
0.01
0.01
0.01
0.01
0.01
0.01
0.01
0.01
0.01
0.01
0.01
0.01
0.01
0.01
0.01
0.01
0.01
0.01
0.01
0.01
0.01
0.01
0.01
0.01
0.01
0.01
0.01
0.01
0.01
0.01
0.01
0.01
0.01
0.01
0.01
0.01
0.01
0.01
0.01
0.01
0.01
0.01
0.01
0.01
0.01
0.01
0.01
0.01
0.00
0.00
0.00
0.00
0.00
0.00
0.00
0.00
0.00
0.00
0.00
-0.00
-0.00
-0.01
-0.01
-0.01
-0.01
-0.01
-0.01
-0.01
-0.01
-0.02
-0.02
-0.03
-0.03
-0.04
-0.03
-0.04
-0.04
-0.05
-0.07
-0.08
-0.09
-0.08
-0.07
-0.07
-0.06
-0.08
-0.10
-0.13
-0.16
-0.17
-0.16
-0.15
-0.13
-0.14
-0.16
-0.20
-0.24
-0.27
-0.27
-0.25
-0.23
-0.21
-0.21
-0.21
-0.19
-0.11
0.03
0.22
0.41
0.59
0.72
0.78
0.78
0.70
0.56
0.38
0.22
0.12
0.14
0.26
0.42
0.55
0.57
0.51
0.43
0.39
0.42
0.49
0.53
0.49
0.36
0.20
0.07
0.06
0.20
0.47
0.87
1.33
1.80
2.14
2.15
1.68
0.71
-0.55
-1.74
-2.48
-2.61
-2.22
-1.61
-1.12
-0.95
-1.01
-1.08
-0.91
-0.45
0.18
0.75
1.08
1.15
1.08
1.00
0.95
0.91
0.81
0.61
0.34
0.06
-0.19
-0.44
-0.74
-1.13
-1.54
-1.82
-1.82
-1.50
-0.91
-0.24
0.33
0.64
0.67
0.43
0.04
-0.40
-0.76
-0.99
-1.07
-1.06
-1.08
-1.24
-1.54
-1.94
-2.29
-2.44
-2.29
-1.82
-1.04
-0.02
1.11
2.18
2.97
3.31
3.16
2.58
1.77
0.97
0.36
0.04
-0.00
0.10
0.18
0.09
-0.20
-0.63
-1.04
-1.28
-1.22
-0.90
-0.44
-0.01
0.26
0.34
0.27
0.13
-0.03
-0.17
-0.29
-0.36
-0.31
-0.12
0.20
0.48
0.52
0.14
-0.66
-1.68
-2.51
-2.80
-2.40
-1.49
-0.46
0.28
0.52
0.35
0.04
-0.14
-0.08
0.13
0.33
0.41
0.38
0.35
0.45
0.70
1.06
1.39
1.60
1.64
1.53
1.33
1.11
0.86
0.58
0.23
-0.18
-0.59
-0.87
-0.95
-0.82
-0.54
-0.29
-0.18
-0.26
-0.45
-0.62
-0.59
-0.30
0.18
0.66
0.95
0.93
0.62
0.15
-0.27
-0.44
-0.27
0.24
0.96
1.71
2.30
2.54
2.30
1.57
0.50
-0.64
-1.52
-1.92
-1.80
-1.33
-0.72
-0.15
0.34
0.79
1.23
1.65
1.96
2.07
1.92
1.55
1.03
0.44
-0.18
-0.85
-1.52
-2.14
-2.57
-2.71
-2.51
-2.03
-1.41
-0.80
-0.32
-0.01
0.16
0.29
0.40
0.51
0.56
0.50
0.36
0.24
0.25
0.43
0.70
0.91
0.91
0.67
0.29
-0.09
-0.31
-0.32
-0.17
0.00
0.11
0.09
-0.04
-0.23
-0.41
-0.52
-0.49
-0.32
-0.06
0.20
0.37
0.41
0.37
0.35
0.40
0.51
0.56
0.42
0.06
-0.44
-0.88
-1.06
-0.91
-0.49
0.01
0.36
0.48
0.38
0.22
0.17
0.35
0.78
1.36
1.94
2.33
2.43
2.20
1.74
1.16
0.64
0.27
0.10
0.11
0.18
0.21
0.06
-0.30
-0.81
-1.33
-1.67
-1.69
-1.35
-0.78
-0.16
0.29
0.51
0.53
0.47
0.46
0.55
0.72
0.92
1.09
1.17
1.09
0.75
0.09
-0.85
-1.91
-2.82
-3.37
-3.44
-3.09
-2.49
-1.81
-1.18
-0.62
-0.13
0.29
0.60
0.75
0.71
0.47
0.03
-0.55
-1.18
-1.74
-2.05
-2.01
-1.61
-1.00
-0.36
0.11
0.35
0.46
0.61
0.94
1.44
1.97
2.36
2.45
2.26
1.88
1.46
1.08
0.74
0.37
-0.08
-0.56
-0.93
-1.03
-0.75
-0.12
0.73
1.60
2.35
2.89
3.24
3.38
3.32
3.06
2.61
1.98
1.23
0.41
-0.40
-1.17
-1.83
-2.34
-2.65
-2.77
-2.71
-2.54
-2.31
-2.06
-1.79
-1.51
-1.19
-0.84
-0.44
0.01
0.47
0.89
1.20
1.34
1.26
0.99
0.53
-0.02
-0.59
-1.06
-1.37
-1.46
-1.38
-1.20
-1.04
-1.00
-1.09
-1.23
-1.29
-1.15
-0.77
-0.19
0.42
0.93
1.20
1.23
1.04
0.74
0.44
0.22
0.13
0.17
0.31
0.51
0.70
0.82
0.84
0.76
0.58
0.32
0.07
-0.06
0.05
0.43
1.00
1.55
1.82
1.62
0.89
-0.17
-1.29
-2.19
-2.73
-2.89
-2.78
-2.52
-2.19
-1.86
-1.58
-1.39
-1.30
-1.26
-1.15
-0.89
-0.49
-0.05
0.22
0.18
-0.13
-0.52
-0.73
-0.54
0.02
0.76
1.41
1.76
1.80
1.68
1.61
1.72
1.99
2.27
2.36
2.13
1.60
0.88
0.12
-0.55
-1.08
-1.49
-1.81
-2.02
-2.08
-1.94
-1.57
-1.02
-0.38
0.22
0.70
1.02
1.23
1.39
1.51
1.56
1.48
1.18
0.66
0.04
-0.50
-0.79
-0.71
-0.32
0.23
0.74
1.05
1.10
0.96
0.75
0.56
0.44
0.36
0.28
0.15
-0.04
-0.27
-0.52
-0.72
-0.82
-0.79
-0.63
-0.41
-0.19
-0.06
-0.04
-0.06
-0.03
0.10
0.32
0.51
0.52
0.27
-0.21
-0.77
-1.22
-1.41
-1.29
-0.93
-0.47
-0.05
0.22
0.28
0.12
-0.17
-0.47
-0.67
-0.66
-0.39
0.10
0.69
1.26
1.64
1.72
1.46
0.94
0.34
-0.09
-0.16
0.19
0.84
1.48
1.82
1.65
0.99
0.01
-1.06
-2.02
-2.74
-3.07
-2.93
-2.24
-1.06
0.39
1.78
2.75
3.15
3.00
2.53
2.02
1.60
1.30
1.06
0.84
0.60
0.34
0.03
-0.40
-0.99
-1.67
-2.28
-2.61
-2.54
-2.10
-1.45
-0.80
-0.33
-0.09
0.02
0.09
0.25
0.52
0.88
1.22
1.40
1.34
1.02
0.53
0.11
-0.01
0.31
1.04
1.99
2.87
3.44
3.63
3.50
3.29
3.31
3.80
4.79
6.15
7.61
8.83
9.56
9.70
9.44
9.28
9.75
11.10
13.21
15.63
17.73
19.03
19.33
18.98
18.77
19.56
21.63
24.69
28.01
30.80
32.62
33.24
33.04
32.76
33.15
34.47
36.91
40.64
45.43
50.53
53.17
49.50
36.95
16.27
-9.03
-33.53
-52.37
-63.06
-65.72
-62.86
-57.27
-50.62
-43.25
-35.77
-28.40
-21.64
-18.06
-17.23
-18.76
-21.72
-24.85
-26.97
-28.69
-30.63
-33.45
-37.74
-43.52
-50.81
-59.27
-68.42
-71.14
-67.16
-58.37
-47.42
-36.50
-26.72
-18.59
-11.91
-6.11
-0.54
4.07
7.57
9.98
11.54
12.60
13.42
14.28
15.48
17.22
18.72
19.70
20.12
20.18
20.16
20.23
20.57
21.27
22.35
23.24
23.70
23.65
23.32
22.94
22.70
22.75
23.08
23.54
23.54
22.67
20.22
16.65
12.33
7.76
3.40
-0.51
-4.09
-7.85
-11.57
-16.08
-21.22
-26.40
-30.76
-33.56
-34.56
-34.23
-33.60
-33.83
-35.81
-39.42
-43.86
-47.85
-50.45
-51.18
-50.54
-49.55
-49.32
-50.78
-54.41
-60.51
-68.82
-77.99
-85.09
-86.10
-77.35
-57.55
-29.11
2.45
30.32
49.56
58.54
59.23
55.44
50.65
46.47
42.66
38.35
33.25
28.14
24.36
22.80
23.27
24.64
25.53
24.83
22.53
19.57
17.11
16.14
16.99
19.18
21.66
23.28
23.33
21.76
19.15
16.32
14.02
12.57
11.77
11.11
10.04
8.23
5.71
2.82
-0.00
-2.37
-4.14
-5.44
-6.55
-7.76
-9.27
-11.07
-13.07
-15.21
-17.26
-19.19
-21.12
-23.17
-25.47
-28.09
-31.04
-34.32
-38.02
-41.92
-45.96
-50.15
-54.53
-59.05
-63.55
-67.87
-71.92
-75.84
-79.33
-82.53
-85.71
-89.15
-92.94
-96.94
-100.85
-104.36
-107.49
-109.71
-111.04
-111.64
-111.54
-110.30
-106.81
-99.30
-85.22
-67.42
-46.77
-24.31
-1.10
22.00
44.61
66.80
89.10
112.11
136.38
163.04
192.55
224.26
256.05
284.35
304.90
314.17
310.59
295.10
271.36
243.65
215.57
189.17
165.12
143.29
123.71
106.58
91.89
79.44
68.40
57.59
46.19
34.10
21.97
11.28
3.31
-1.59
-3.75
-4.17
-4.02
-4.17
-4.97
-6.20
-6.48
-4.69
-0.88
3.96
8.34
11.01
11.57
10.54
9.17
10.11
15.16
23.85
34.32
44.23
51.81
56.61
59.39
61.49
65.81
74.31
86.38
100.58
114.88
126.73
133.34
131.71
109.09
60.40
-7.77
-80.59
-142.31
-184.80
-208.64
-218.99
-221.40
-219.53
-213.16
-200.90
-186.97
-172.98
-162.12
-158.67
-164.80
-178.21
-192.19
-196.48
-175.69
-127.24
-60.69
15.79
92.31
159.62
211.30
244.65
255.63
243.22
202.25
139.27
70.28
12.00
-26.13
-44.40
-48.79
-45.54
-38.43
-30.01
-19.83
-7.49
5.70
17.52
25.61
27.52
25.33
21.73
17.86
15.00
13.72
13.55
13.22
9.93
2.17
-9.88
-25.27
-43.62
-64.78
-89.93
-115.01
-139.06
-164.75
-194.27
-228.10
-265.25
-304.30
-344.08
-384.37
-425.70
-448.46
-440.47
-399.63
-332.88
-249.91
-159.19
-68.95
12.20
77.04
121.67
144.51
148.88
141.26
127.94
113.08
98.19
84.02
71.73
62.61
55.36
48.21
40.85
31.87
20.68
7.44
-6.36
-18.74
-28.01
-34.74
-40.26
-45.93
-52.91
-61.59
-71.90
-82.37
-91.25
-96.95
-99.20
-98.38
-94.97
-89.10
-79.61
-69.29
-58.05
-45.03
-29.27
-10.61
10.36
32.55
54.63
75.65
95.10
113.78
132.64
152.79
175.27
200.92
229.86
260.92
291.30
316.73
333.09
337.18
328.17
308.00
280.69
250.76
221.69
195.15
171.22
149.57
129.87
112.14
96.61
83.23
71.50
60.59
49.78
38.82
28.14
18.44
10.31
3.87
-1.28
-5.93
-10.80
-16.26
-22.16
-27.87
-32.63
-35.95
-37.75
-38.46
-38.74
-39.21
-40.18
-41.51
-42.78
-43.45
-43.15
-41.80
-39.70
-37.30
-35.07
-33.36
-32.30
-31.82
-31.76
-31.94
-32.19
-32.39
-32.41
-32.10
-31.34
-30.05
-28.20
-25.87
-23.21
-20.38
-17.53
-14.82
-12.46
-10.67
-9.62
-9.35
-9.71
-10.45
-11.30
-12.11
-12.85
-13.55
-14.17
-14.55
-14.47
-13.76
-12.36
-10.47
-8.38
-6.37
-4.64
-3.22
-2.04
-0.92
0.21
1.37
2.49
3.42
4.11
4.52
4.70
4.67
4.43
3.88
2.94
1.59
-0.13
-2.09
-4.12
-6.12
-8.01
-9.74
-11.25
-12.52
-13.56
-14.41
-15.18
-15.95
-16.71
-17.36
-17.77
-17.76
-17.25
-16.26
-14.91
-13.31
-11.60
-9.87
-8.23
-6.85
-5.84
-5.26
-5.04
-5.03
-5.13
-5.33
-5.74
-6.47
-7.49
-8.60
-9.50
-9.94
-9.88
-9.49
-9.06
-8.73
-8.48
-8.06
-7.21
-5.84
-4.08
-2.22
-0.58
0.63
1.42
1.95
2.42
2.96
3.53
3.95
4.03
3.67
2.98
2.18
1.56
1.31
1.49
2.01
2.69
3.35
3.85
4.09
4.04
3.76
3.39
3.08
2.95
2.98
3.00
2.81
2.21
1.19
-0.22
-1.89
-3.68
-5.45
-7.01
-8.12
-8.48
-7.92
-6.48
-4.47
-2.31
-0.38
1.14
2.24
3.06
3.71
4.21
4.49
4.46
4.09
3.47
2.75
2.11
1.64
1.34
1.19
1.12
1.11
1.18
1.33
1.56
1.82
2.05
2.17
2.13
1.94
1.65
1.37
1.19
1.17
1.35
1.66
1.99
2.17
2.07
1.59
0.77
-0.32
-1.46
-2.42
-3.02
-3.22
-3.09
-2.80
-2.55
-2.43
-2.41
-2.36
-2.13
-1.64
-0.94
-0.18
0.51
1.02
1.34
1.52
1.58
1.56
1.43
1.18
0.83
0.47
0.16
-0.07
-0.21
-0.33
-0.44
-0.49
-0.39
-0.03
0.61
1.41
2.18
2.70
2.82
2.51
1.90
1.20
0.59
0.17
-0.06
-0.02
0.28
0.77
1.28
1.68
1.88
1.84
1.56
1.06
0.65
0.61
1.01
1.75
2.70
3.76
4.95
6.28
7.72
9.67
12.36
15.70
19.33
22.81
25.82
28.19
29.80
30.54
31.00
31.62
32.58
33.62
34.41
34.69
34.40
33.62
29.14
19.66
6.21
-8.22
-20.73
-30.00
-36.12
-39.89
-41.84
-42.90
-43.00
-41.97
-39.94
-37.38
-34.82
-32.57
-30.74
-29.26
-27.99
-26.35
-23.95
-20.79
-17.25
-13.80
-10.77
-8.35
-6.57
-5.51
-4.84
-4.28
-3.70
-3.13
-2.66
-2.38
-2.35
-2.56
-2.91
-3.07
-2.66
-1.54
0.22
2.28
4.23
5.68
6.38
6.34
5.81
5.08
4.37
3.53
2.58
1.69
1.02
0.67
0.43
0.05
-0.61
-1.63
-2.93
-4.33
-5.66
-6.78
-7.61
-8.08
-8.17
-7.86
-7.19
-6.26
-5.08
-3.71
-2.23
-0.71
0.75
2.03
2.99
3.52
3.53
3.04
2.13
0.88
-0.59
-2.19
-3.80
-5.33
-6.63
-7.57
-7.98
-7.84
-7.19
-6.18
-4.99
-3.76
-2.58
-1.43
-0.32
0.76
1.75
2.66
3.45
4.12
4.65
5.02
5.19
5.13
4.84
4.35
3.68
2.83
1.84
0.73
-0.42
-1.57
-2.77
-4.05
-5.47
-6.99
-8.46
-9.68
-10.43
-10.60
-10.16
-9.23
-7.97
-6.51
-4.95
-3.34
-1.73
-0.13
1.37
2.71
3.80
4.56
5.00
5.17
5.09
4.79
4.19
3.17
1.73
-0.04
-1.84
-3.33
-4.25
-4.56
-4.38
-3.95
-3.48
-3.06
-2.64
-2.16
-1.57
-0.94
-0.33
0.23
0.85
1.64
2.72
4.06
5.57
7.07
8.36
9.29
9.83
9.96
9.72
9.14
8.26
7.16
5.97
4.80
3.84
3.21
2.98
3.08
3.36
3.62
3.71
3.59
3.34
3.10
3.00
3.00
2.95
2.63
1.93
0.90
-0.24
-1.19
-1.73
-1.78
-1.45
-0.95
-0.51
-0.37
-0.69
-1.52
-2.78
-4.28
-5.80
-7.13
-8.18
-8.86
-9.20
-9.18
-8.82
-8.18
-7.48
-7.01
-7.09
-7.89
-9.29
-10.97
-12.50
-13.59
-14.15
-14.27
-14.03
-13.42
-12.31
-10.55
-8.08
-5.06
-1.76
1.47
4.41
7.07
9.32
10.96
11.77
11.78
11.17
10.31
9.43
8.67
7.97
7.14
6.09
4.82
3.45
2.10
0.80
-0.50
-1.82
-3.09
-4.17
-4.93
-5.29
-5.34
-5.25
-5.01
-4.60
-3.92
-2.81
-1.26
0.52
2.21
3.53
4.39
4.94
5.37
5.84
6.31
6.73
6.98
7.12
7.29
7.65
8.31
9.16
9.97
10.48
10.51
9.96
8.85
7.31
5.39
3.25
1.04
-1.09
-3.00
-4.68
-6.13
-7.38
-8.43
-9.19
-9.49
-9.28
-8.61
-7.73
-7.03
-6.82
-7.23
-8.07
-9.01
-9.66
-9.82
-9.52
-8.91
-8.20
-7.41
-6.45
-5.15
-3.42
-1.31
0.97
3.15
5.08
6.68
8.03
9.16
10.08
10.75
11.09
11.05
10.67
10.08
9.39
8.66
7.88
7.01
6.10
5.28
4.73
4.52
4.61
4.84
5.01
5.03
5.04
5.22
5.62
6.02
5.94
5.00
3.14
0.69
-1.84
-4.12
-6.20
-8.37
-10.88
-13.58
-15.85
-16.94
-16.39
-14.36
-11.60
-8.94
-6.92
-5.52
-4.36
-2.97
-1.15
1.03
3.31
5.29
6.65
7.25
7.10
6.33
5.20
3.95
2.85
2.08
1.66
1.51
1.46
1.39
1.22
0.97
0.69
0.52
0.48
0.57
0.77
1.02
1.22
1.21
0.79
-0.12
-1.41
-2.73
-3.65
-3.87
-3.34
-2.24
-0.96
0.16
0.93
1.42
1.82
2.32
3.05
3.95
4.81
5.32
5.23
4.44
3.07
1.43
-0.14
-1.37
-2.28
-3.09
-4.06
-5.29
-6.58
-7.60
-8.07
-7.97
-7.54
-7.12
-6.93
-7.00
-7.17
-7.23
-6.95
-6.27
-5.31
-4.23
-3.20
-2.30
-1.52
-0.73
0.18
1.29
2.49
3.58
4.34
4.66
4.66
4.52
4.46
4.47
4.48
4.30
3.80
3.03
2.17
1.42
0.84
0.37
-0.12
-0.71
-1.34
-1.87
-2.14
-2.09
-1.77
-1.31
-0.84
-0.47
-0.29
-0.34
-0.65
-1.17
-1.87
-2.60
-3.23
-3.64
-3.74
-3.50
-2.95
-2.14
-1.10
0.08
1.37
2.70
4.01
5.27
6.46
7.56
8.59
9.57
10.50
11.50
12.67
14.06
15.55
16.89
17.74
17.87
17.24
15.62
13.21
10.41
7.62
5.03
2.87
0.97
-0.73
-2.24
-3.52
-4.52
-5.28
-5.92
-6.52
-7.09
-7.52
-7.54
-6.97
-5.84
-4.38
-3.07
-2.30
-2.22
-2.64
-3.13
-3.22
-2.67
-1.59
-0.35
0.64
1.23
1.46
1.52
1.52
1.48
1.28
0.88
0.39
-0.31
-1.26
-2.34
-3.47
-4.52
-5.29
-5.56
-5.24
-4.49
-3.74
-3.49
-4.14
-5.76
-8.05
-10.53
-12.77
-14.55
-15.84
-16.71
-17.10
-16.89
-16.04
-14.64
-13.03
-11.58
-10.54
-9.89
-9.34
-8.50
-7.11
-5.22
-3.11
-1.14
0.45
1.64
2.62
3.74
5.24
7.12
9.06
10.54
11.16
10.77
9.60
8.13
6.80
5.90
5.44
5.21
5.04
4.88
4.83
5.09
5.74
6.75
7.97
9.30
10.76
12.44
14.40
16.23
17.37
17.19
15.43
12.36
8.75
5.44
2.90
1.14
-0.16
-1.31
-2.41
-3.32
-3.80
-3.71
-3.10
-2.18
-1.27
-0.70
-0.67
-1.26
-2.33
-3.64
-4.91
-5.91
-6.58
-6.99
-7.36
-7.90
-8.66
-9.50
-10.19
-10.58
-10.62
-10.47
-10.13
-9.65
-8.94
-7.93
-6.45
-4.50
-2.26
-0.02
1.93
3.39
4.24
4.38
3.82
2.66
1.21
-0.02
-0.53
-0.05
1.29
3.05
4.68
5.78
6.26
6.27
5.98
5.41
4.46
3.08
1.46
0.02
-0.75
-0.58
0.42
1.73
2.82
3.18
2.72
1.67
0.45
-0.52
-0.96
-0.89
-0.51
-0.16
0.01
-0.12
-0.38
-0.55
-0.39
0.23
1.15
1.99
2.33
1.82
0.49
-1.26
-2.75
-3.42
-3.07
-1.91
-0.58
0.29
0.39
-0.08
-0.52
-0.36
0.64
2.21
3.64
4.27
3.71
2.13
0.13
-1.45
-2.02
-1.42
0.12
1.91
3.36
4.11
4.15
3.67
2.88
1.85
0.64
-0.64
-1.77
-2.41
-2.36
-1.72
-0.86
-0.21
-0.14
-0.68
-1.55
-2.40
-2.90
-2.92
-2.48
-1.71
-0.71
0.41
1.49
2.28
2.54
2.21
1.41
0.51
-0.20
-0.47
-0.43
-0.36
-0.54
-0.99
-1.53
-1.97
-2.27
-2.60
-3.20
-4.04
-4.76
-4.80
-3.70
-1.51
1.15
3.40
4.56
4.48
3.47
2.05
0.67
-0.50
-1.48
-2.32
-2.93
-3.21
-3.03
-2.55
-2.09
-1.83
-1.82
-1.83
-1.63
-1.13
-0.51
-0.08
-0.20
-0.98
-2.29
-3.75
-5.09
-6.18
-6.99
-7.51
-7.48
-6.68
-5.01
-2.78
-0.26
2.30
4.59
6.35
7.52
8.14
8.35
8.30
8.09
7.78
7.35
6.75
5.94
4.95
3.86
2.75
1.74
0.88
0.24
-0.22
-0.59
-0.95
-1.31
-1.61
-1.80
-1.81
-1.63
-1.27
-0.83
-0.42
-0.14
-0.08
-0.26
-0.63
-1.08
-1.46
-1.66
-1.71
-1.69
-1.70
-1.77
-1.90
-2.05
-2.22
-2.41
-2.64
-2.91
-3.19
-3.34
-3.28
-3.01
-2.66
-2.46
-2.59
-2.77
-2.74
-2.41
-1.76
-0.88
0.09
1.01
1.84
2.65
3.49
4.32
5.05
5.59
5.85
5.81
5.50
5.01
4.41
3.75
3.03
2.27
1.55
1.02
0.81
0.99
1.59
2.54
3.70
4.82
5.72
6.23
6.29
5.97
5.47
5.03
4.85
4.94
5.13
5.23
5.11
