1540453952.00
64.000000
-0.00
-0.00
-0.00
-0.00
-0.00
-0.00
-0.00
-0.00
-0.00
-0.00
0.00
0.01
0.01
-0.00
-0.03
-0.05
-0.05
0.00
0.13
0.36
0.66
1.01
1.37
1.72
2.06
2.40
2.79
3.24
3.80
4.42
5.06
5.66
6.20
6.68
7.15
7.68
8.31
9.14
10.09
11.04
11.88
12.56
13.14
13.76
14.65
15.96
17.91
20.32
22.90
25.38
27.58
29.57
31.68
34.32
37.81
42.54
48.15
54.10
59.83
64.97
69.58
74.14
79.34
85.71
93.76
103.00
112.62
121.73
129.77
136.75
143.30
150.75
157.77
166.64
177.95
191.79
206.97
220.57
228.25
225.36
208.53
176.87
132.76
80.05
23.07
-34.94
-92.44
-149.16
-205.23
-260.37
-313.74
-363.87
-409.83
-450.91
-486.50
-515.74
-537.23
-549.22
-549.96
-538.37
-514.21
-478.67
-433.88
-382.45
-327.02
-269.84
-212.63
-156.66
-102.95
-52.37
-5.90
35.58
71.43
101.35
125.50
144.38
158.69
169.15
176.37
180.75
182.57
182.07
179.51
175.23
169.65
163.18
156.15
148.81
141.30
133.69
126.02
118.33
110.69
103.16
95.80
88.68
81.83
75.25
68.95
62.95
57.25
51.86
46.78
42.03
37.59
33.45
29.61
26.07
22.81
19.83
17.11
14.67
12.48
10.54
8.83
7.35
6.07
4.97
4.05
3.27
2.62
2.09
1.65
1.30
1.01
0.79
0.61
0.48
0.37
0.29
0.22
0.18
0.14
0.11
0.09
0.08
0.07
0.06
0.05
0.05
0.06
0.06
0.07
0.09
0.11
0.13
0.16
0.20
0.24
0.28
0.32
0.37
0.42
0.47
0.52
0.57
0.62
0.68
0.74
0.80
0.87
0.95
1.04
1.14
1.25
1.38
1.53
1.69
1.88
2.09
2.33
2.58
2.86
3.17
3.51
3.87
4.26
4.68
5.13
5.62
6.14
6.70
7.30
7.95
8.66
9.41
10.22
11.07
12.00
12.98
14.01
15.11
16.29
17.55
18.88
20.30
21.79
23.32
24.84
26.29
27.56
28.56
29.13
29.17
28.56
27.24
25.15
22.35
18.89
14.93
10.64
6.24
1.97
-1.97
-5.38
-8.11
-10.06
-11.22
-11.59
-11.27
-10.41
-9.16
-7.74
-6.36
-5.21
-4.48
-4.28
-4.73
-5.89
-7.80
-10.44
-13.71
-17.40
-21.24
-24.83
-27.71
-29.38
-29.57
-28.11
-24.94
-20.16
-13.98
-6.65
1.56
10.45
19.85
29.32
38.46
46.94
54.49
60.94
66.35
70.97
75.29
79.92
84.85
90.02
95.15
99.81
103.62
106.45
108.57
110.63
113.48
117.04
120.95
124.34
125.93
124.42
118.87
108.68
93.29
76.78
60.67
45.34
30.03
13.34
-6.05
-28.62
-53.68
-79.52
-104.05
-126.38
-146.53
-165.41
-184.67
-206.13
-231.56
-262.33
-298.75
-338.95
-378.56
-410.32
-426.08
-419.93
-390.93
-344.01
-288.21
-233.02
-184.97
-146.43
-116.08
-91.41
-70.97
-55.05
-44.69
-40.11
-39.68
-40.35
-39.16
-34.35
-26.02
-15.80
-5.90
2.02
7.37
10.86
13.86
17.55
22.43
27.92
32.59
34.76
33.19
27.33
17.57
4.95
-9.02
-22.45
-33.13
-38.63
-36.75
-26.32
-7.87
16.18
42.04
65.77
84.46
96.86
103.30
104.86
102.58
97.05
88.70
78.17
66.69
56.00
47.67
42.51
40.20
39.55
39.07
37.69
35.05
31.49
27.83
24.63
21.99
19.36
15.70
9.79
0.82
-11.41
-26.07
-41.39
-54.95
-64.11
-66.68
-61.33
-47.93
-27.57
-2.45
24.56
50.38
72.24
88.23
97.46
100.09
97.12
89.95
80.14
69.16
58.28
48.54
40.61
34.75
30.77
28.21
26.58
25.57
25.14
25.32
25.95
26.58
26.36
24.14
18.76
9.45
-3.79
-19.83
-36.37
-50.31
-58.48
-58.49
-49.54
-32.56
-9.93
15.27
40.14
62.41
80.65
94.06
102.27
105.24
103.31
97.34
88.69
78.95
69.49
61.11
53.92
47.46
41.20
34.87
28.69
23.18
18.93
16.08
14.21
12.39
9.36
3.99
-4.50
-16.13
-30.00
-44.10
-55.58
-61.38
-59.07
-47.75
-28.43
-3.78
22.67
47.62
68.74
84.88
95.80
101.72
102.87
99.62
92.52
82.58
71.11
59.50
48.75
39.25
30.89
23.25
16.05
9.32
3.41
-1.27
-4.58
-6.84
-8.87
-11.82
-16.83
-24.68
-35.40
-47.98
-60.37
-69.82
-73.58
-69.69
-57.75
-38.97
-15.83
8.73
32.05
52.27
68.28
79.59
85.92
87.22
83.71
76.16
65.81
54.22
42.86
32.74
24.21
17.03
10.70
4.87
-0.51
-5.14
-8.61
-10.75
-11.84
-12.65
-14.28
-17.92
-24.40
-33.88
-45.51
-57.37
-66.87
-71.28
-68.64
-58.33
-41.32
-19.87
3.22
25.30
44.41
59.42
69.78
75.35
76.17
72.63
65.46
55.84
45.15
34.74
25.54
17.97
11.93
6.96
2.61
-1.40
-5.02
-8.00
-10.08
-11.24
-11.81
-12.51
-14.33
-18.24
-24.94
-34.45
-45.88
-57.38
-66.38
-70.27
-67.16
-56.57
-39.60
-18.60
3.55
24.29
41.91
55.56
65.02
70.30
71.40
68.43
61.79
52.35
41.44
30.56
20.99
13.51
8.20
4.62
2.07
-0.07
-2.10
-4.04
-5.71
-7.01
-8.05
-9.19
-10.95
-13.82
-18.18
-24.28
-32.24
-41.90
-52.65
-63.17
-71.51
-75.39
-72.95
-63.37
-47.30
-26.75
-4.53
16.58
34.44
47.93
56.79
61.36
62.19
59.87
54.94
48.01
39.81
31.16
22.95
15.90
10.44
6.55
3.83
1.68
-0.44
-2.77
-5.27
-7.64
-9.66
-11.27
-12.69
-14.32
-16.60
-19.89
-24.47
-30.64
-38.50
-47.76
-57.43
-65.75
-70.50
-69.61
-62.01
-48.00
-29.31
-8.53
11.71
29.29
43.07
52.68
58.28
60.19
58.82
54.60
48.19
40.42
32.23
24.48
17.77
12.40
8.34
5.42
3.38
1.95
0.87
-0.16
-1.34
-2.80
-4.54
-6.48
-8.55
-10.83
-13.61
-17.39
-22.74
-29.98
-38.94
-48.64
-57.34
-62.86
-63.26
-57.48
-45.76
-29.57
-11.12
7.30
23.89
37.54
47.67
54.00
56.38
54.80
49.64
41.71
32.21
22.47
13.59
6.23
0.55
-3.71
-6.96
-9.61
-11.94
-14.12
-16.18
-18.15
-20.02
-21.85
-23.75
-25.88
-28.51
-31.99
-36.76
-43.19
-51.30
-60.49
-69.40
-76.05
-78.38
-74.86
-65.12
-50.13
-31.87
-12.82
4.79
19.43
30.35
37.47
41.08
41.59
39.48
35.23
29.38
22.54
15.34
8.40
2.21
-2.95
-7.05
-10.22
-12.72
-14.81
-16.62
-18.23
-19.68
-21.04
-22.43
-24.02
-26.01
-28.59
-31.98
-36.53
-42.64
-50.60
-60.23
-70.60
-79.93
-85.91
-86.37
-79.98
-66.79
-48.31
-27.00
-5.63
13.42
28.63
39.38
45.83
48.56
48.31
45.78
41.56
36.12
29.85
23.15
16.42
10.09
4.55
0.09
-3.12
-5.16
-6.24
-6.69
-6.86
-7.09
-7.63
-8.71
-10.49
-13.16
-16.84
-21.63
-27.57
-34.68
-42.83
-51.60
-60.09
-66.84
-70.05
-68.10
-60.07
-46.22
-28.04
-7.80
12.06
29.53
43.41
53.32
59.40
62.07
61.81
59.05
54.25
47.98
40.85
33.56
26.76
20.92
16.30
12.90
10.56
9.01
7.98
7.17
6.35
5.31
3.84
1.79
-0.91
-4.27
-8.29
-12.99
-18.51
-25.08
-32.91
-41.91
-51.42
-60.09
-66.06
-67.42
-62.86
-52.15
-36.28
-17.19
2.76
21.40
37.10
48.94
56.62
60.31
60.50
57.87
53.22
47.33
40.92
34.48
28.41
22.98
18.43
14.92
12.52
11.16
10.57
10.33
9.99
9.17
7.63
5.28
2.16
-1.60
-5.84
-10.34
-14.95
-19.59
-24.40
-29.75
-36.05
-43.50
-51.67
-59.34
-64.69
-65.75
-61.08
-50.35
-34.51
-15.52
4.19
22.35
37.30
48.21
54.92
57.79
57.45
54.68
50.26
44.90
39.20
33.60
28.41
23.81
19.95
16.96
14.99
14.11
14.28
15.22
16.43
17.28
17.22
15.93
13.49
10.33
7.03
4.11
1.70
-0.52
-3.28
-7.47
-13.74
-22.11
-31.74
-40.92
-47.44
-49.22
-44.91
-34.34
-18.53
0.61
20.92
40.42
57.68
71.80
82.33
89.08
92.12
91.90
89.25
85.49
82.10
80.39
81.15
84.40
89.56
95.69
102.07
108.48
115.36
123.63
134.48
149.07
168.22
192.00
219.36
247.93
274.41
295.36
308.32
312.67
309.65
301.70
291.29
279.89
267.73
254.18
238.49
220.41
200.33
178.94
156.80
134.17
111.03
87.40
63.51
39.86
17.08
-4.27
-23.93
-42.03
-59.04
-75.57
-92.15
-109.12
-126.50
-144.18
-162.21
-180.93
-200.93
-222.56
-245.46
-268.25
-288.65
-304.19
-313.07
-314.83
-310.46
-301.91
-291.42
-280.80
-271.23
-263.33
-257.24
-252.73
-248.99
-244.60
-237.68
-226.44
-209.87
-188.20
-162.98
-136.67
-111.87
-90.65
-74.10
-62.34
-54.86
-50.93
-49.88
-51.25
-54.62
-59.41
-64.78
-69.61
-72.67
-73.02
-70.22
-64.59
-57.10
-49.00
-41.39
-34.86
-29.36
-24.43
-19.56
-14.64
-10.01
-6.39
-4.57
-5.13
-8.25
-13.75
-21.01
-28.99
-36.20
-40.83
-41.16
-36.02
-25.35
-10.32
6.93
23.92
38.53
49.48
56.44
59.70
59.81
57.19
52.13
45.01
36.36
27.01
17.89
9.81
3.21
-1.81
-5.47
-8.09
-10.00
-11.54
-12.95
-14.49
-16.34
-18.61
-21.33
-24.46
-27.99
-31.92
-36.38
-41.55
-47.74
-55.10
-63.47
-72.09
-79.42
-83.38
-81.91
-73.60
-58.34
-37.41
-13.17
11.66
34.61
53.99
68.96
79.32
85.24
87.10
85.39
80.69
73.78
65.56
56.88
48.53
41.03
34.68
29.60
25.76
23.03
21.13
19.73
18.42
16.84
14.76
12.12
8.94
5.31
1.27
-3.22
-8.28
-14.09
-20.91
-28.93
-38.06
-47.67
-56.40
-62.39
-63.72
-59.19
-48.92
-34.41
-18.20
-3.07
8.78
16.18
18.98
17.73
13.31
6.60
-1.54
-10.29
-18.83
-26.45
-32.67
-37.30
-40.42
-42.26
-42.94
-42.51
-40.92
-38.25
-34.86
-31.44
-28.80
-27.64
-28.27
-30.57
-34.11
-38.49
-43.58
-49.69
-57.41
-67.29
-79.49
-93.35
-107.33
-119.14
-126.21
-126.43
-118.81
-103.86
-83.53
-60.70
-38.35
-19.00
-4.23
5.21
9.16
7.73
1.33
-9.39
-23.31
-38.97
-54.73
-69.17
-81.31
-90.80
-97.83
-102.98
-107.04
-110.76
-114.76
-119.35
-124.47
-129.73
-134.67
-138.96
-142.62
-145.94
-149.21
-152.34
-154.73
-155.26
-152.77
-146.47
-136.25
-122.70
-106.73
-89.21
-70.63
-51.01
-29.96
-6.91
18.64
46.70
76.55
106.48
134.06
156.61
172.01
179.31
178.93
172.43
161.80
148.95
135.36
122.19
110.39
100.80
93.90
89.58
87.03
84.97
82.16
77.88
72.16
65.54
58.73
52.05
45.30
37.72
28.34
16.45
1.98
-14.08
-29.80
-42.72
-50.56
-51.90
-46.43
-34.87
-18.32
2.10
25.55
51.16
77.69
103.27
125.73
143.33
155.49
163.33
169.20
175.74
184.68
196.19
208.99
220.96
229.77
233.35
230.24
219.75
202.51
181.15
160.37
146.00
142.97
152.96
173.06
196.37
214.47
220.66
212.30
190.95
160.74
125.59
87.29
45.17
-2.36
-55.53
-111.62
-164.99
-208.94
-238.25
-251.13
-249.44
-237.38
-219.31
-198.05
-174.53
-148.62
-120.48
-91.46
-63.90
-40.34
-22.47
-10.52
-3.41
0.71
3.74
7.13
11.55
16.86
22.39
27.33
31.11
33.63
35.26
36.49
37.66
38.68
39.17
38.64
36.78
33.57
29.15
23.64
16.97
8.90
-0.72
-11.52
-22.31
-31.07
-35.47
-33.59
-24.67
-9.46
10.02
31.09
51.16
68.39
81.78
91.04
96.33
98.00
96.50
92.49
86.71
80.00
73.10
66.62
60.94
56.25
52.58
49.83
47.76
45.95
44.01
41.58
38.57
35.14
31.64
28.45
25.70
23.23
20.61
17.34
12.87
6.78
-1.33
-11.61
-23.81
-36.82
-48.55
-56.27
-57.37
-50.45
-36.03
-16.58
4.45
23.77
39.29
50.48
57.85
62.22
64.09
63.56
60.63
55.61
49.34
42.85
37.07
32.42
28.82
25.85
23.10
20.33
17.53
14.86
12.37
10.00
7.55
4.79
1.57
-2.09
-6.06
-10.16
-14.31
-18.67
-23.55
-29.52
-37.01
-46.12
-56.22
-65.82
-72.80
-74.96
-70.84
-60.30
-44.68
-26.35
-7.90
8.61
22.05
32.12
39.00
42.98
44.32
43.35
40.56
36.67
32.45
28.47
24.99
22.01
19.39
17.02
14.91
13.08
11.45
9.86
8.12
6.09
3.75
1.21
-1.41
-4.07
-6.84
-9.89
-13.49
-17.94
-23.62
-30.83
-39.54
-49.14
-58.29
-65.02
-67.30
-63.79
-54.28
-39.93
-22.87
-5.50
10.15
22.89
32.30
38.57
42.13
43.50
43.16
41.65
39.48
37.16
35.07
33.37
32.03
30.90
29.86
28.87
28.02
27.45
27.16
26.92
26.37
25.10
22.86
19.70
15.92
11.89
7.84
3.67
-1.00
-6.75
-14.09
-23.26
-33.99
-45.32
-55.69
-63.18
-66.00
-63.09
-54.47
-41.36
-25.79
-10.02
4.02
15.14
22.92
27.45
29.16
28.53
26.06
22.25
17.62
12.67
7.83
3.38
-0.58
-4.07
-7.23
-10.16
-12.86
-15.26
-17.24
-18.70
-19.73
-20.52
-21.39
-22.59
-24.25
-26.28
-28.51
-30.83
-33.36
-36.43
-40.30
-44.98
-49.85
-53.76
-55.28
-53.21
-47.01
-37.09
-24.60
-11.02
2.24
14.12
23.99
31.53
36.51
38.82
38.46
35.65
30.95
25.18
19.32
14.22
10.46
8.17
7.00
6.39
5.70
4.62
3.12
1.47
-0.04
-1.24
-2.27
-3.52
-5.43
-8.41
-12.71
-18.39
-25.25
-32.79
-40.01
-45.57
-47.93
-45.85
-38.77
-27.01
-11.72
5.52
23.08
39.68
54.42
66.75
76.41
83.25
87.42
89.38
89.93
90.09
90.88
92.96
96.51
101.25
106.56
111.89
117.04
122.34
128.61
137.12
149.20
165.87
187.28
212.28
238.26
261.68
279.00
287.90
288.01
280.88
269.15
255.42
241.19
226.72
211.41
194.57
175.96
155.93
135.06
113.80
92.25
70.26
47.66
24.52
1.11
-22.23
-45.34
-68.33
-91.37
-114.47
-137.14
-158.47
-177.25
-192.48
-203.68
-211.03
-215.15
-216.80
-216.57
-214.80
-211.70
-207.56
-202.89
-198.47
-195.14
-193.54
-193.97
-196.02
-198.70
-200.44
-199.43
-194.14
-183.71
-168.32
-149.20
-128.40
-108.17
-90.51
-76.74
-67.30
-61.95
-60.05
-60.86
-63.79
-68.40
-74.30
-81.00
-87.85
-94.11
-99.12
-102.49
-104.20
-104.56
-104.09
-103.20
-102.12
-100.86
-99.21
-97.03
-94.31
-91.33
-88.62
-86.85
-86.72
-88.75
-93.07
-99.26
-106.23
-112.18
-114.95
-112.48
-103.44
-87.74
-66.66
-42.60
-18.36
3.53
21.36
34.43
42.91
47.41
48.75
47.68
44.87
40.94
36.47
31.99
27.91
24.42
21.58
19.27
17.37
15.75
14.37
13.23
12.36
11.74
11.30
10.87
10.24
9.15
7.38
4.74
1.04
-3.95
-10.52
-18.86
-28.75
-39.35
-49.00
-55.61
-57.10
-52.27
-41.30
-25.79
-8.38
8.12
21.47
30.43
34.88
35.59
33.80
30.94
28.27
26.67
26.53
27.76
29.92
32.47
34.95
37.11
38.84
40.05
40.60
40.29
38.99
36.71
33.64
30.05
26.06
21.70
16.82
11.32
5.20
-1.44
-8.57
-16.39
-25.22
-35.27
-46.07
-56.25
-63.59
-65.64
-60.64
-48.24
-29.72
-7.66
14.88
35.31
51.92
64.12
72.04
76.25
77.45
76.25
73.21
68.76
63.23
56.83
49.72
42.15
34.43
26.98
20.12
13.99
8.48
3.38
-1.55
-6.41
-11.18
-15.85
-20.50
-25.35
-30.69
-36.70
-43.45
-50.95
-59.23
-68.26
-77.72
-86.67
-93.40
-95.73
-91.67
-80.23
-61.96
-38.89
-13.92
9.98
30.62
46.90
58.65
66.27
70.38
71.48
70.06
66.59
61.60
55.71
49.48
43.46
38.00
33.38
29.74
27.11
25.41
24.46
23.98
23.61
22.96
21.64
19.37
16.00
11.58
6.32
0.48
-5.77
-12.58
-20.42
-29.85
-41.04
-53.28
-64.72
-72.68
-74.41
-68.09
-53.60
-32.70
-8.47
15.65
36.78
53.23
64.46
70.83
73.02
71.75
67.61
61.19
53.17
44.31
35.36
26.96
19.49
13.03
7.55
3.04
-0.42
-2.70
-3.76
-3.87
-3.64
-3.85
-5.23
-8.14
-12.44
-17.62
-23.00
-28.09
-32.84
-37.70
-43.56
-51.30
-61.26
-72.68
-83.56
-90.91
-91.70
-83.87
-67.29
-43.96
-17.46
8.18
29.68
45.31
54.97
59.72
60.98
59.95
57.27
53.10
47.30
39.68
30.12
18.77
6.23
-6.37
-17.47
-25.49
-29.47
-29.55
-27.11
-24.30
-23.30
-25.58
-31.52
-40.55
-51.62
-63.80
-76.61
-90.20
-105.12
-122.04
-141.08
-161.28
-180.29
-194.61
-200.46
-194.93
-176.99
-147.82
-110.45
-68.92
-27.38
10.55
42.05
65.30
79.54
85.23
83.92
77.88
69.46
60.55
52.15
44.50
37.41
30.74
24.53
19.10
14.87
12.11
10.86
10.84
11.53
12.33
12.64
11.96
9.93
6.52
1.93
-3.35
-8.75
-13.88
-18.71
-23.59
-28.90
-34.61
-40.07
-44.12
-45.38
-42.75
-35.70
-24.39
-9.55
7.66
25.79
43.27
58.60
70.72
79.12
83.94
85.78
85.29
83.03
79.32
74.46
68.88
63.21
58.08
53.90
50.83
48.66
46.97
45.31
43.36
40.95
38.14
35.03
31.73
28.32
24.78
21.12
17.31
13.24
8.60
2.80
-4.81
-14.39
-25.00
-34.53
-40.11
-39.34
-31.37
-17.33
0.06
17.76
33.55
46.64
57.31
66.13
73.20
77.98
79.81
78.46
74.51
69.10
63.39
58.09
53.28
48.73
44.19
39.66
35.39
31.82
29.17
27.35
25.99
24.59
22.73
20.22
17.14
13.68
10.04
6.16
1.74
-3.73
-10.80
-19.61
-29.71
-39.77
-47.83
-51.79
-50.07
-42.24
-29.15
-12.72
4.72
21.07
34.95
45.78
53.54
58.49
60.90
60.98
58.99
55.30
50.43
44.99
39.54
34.49
30.03
26.17
22.80
19.77
17.02
14.48
12.13
9.94
7.87
5.83
3.68
1.25
-1.73
-5.51
-10.44
-16.76
-24.57
-33.59
-42.99
-51.42
-57.20
-58.76
-55.17
-46.39
-33.44
-17.95
-1.76
13.52
26.72
37.18
44.54
48.70
49.77
48.11
44.37
39.31
33.76
28.35
23.50
19.42
16.12
13.53
11.47
9.73
8.07
6.29
4.32
2.19
0.02
-2.09
-4.21
-6.58
-9.57
-13.59
-19.05
-26.15
-34.87
-44.66
-54.43
-62.53
-67.09
-66.55
-60.17
-48.31
-32.35
-14.33
3.73
20.17
33.94
44.51
51.76
55.75
56.73
55.13
51.46
46.37
40.42
34.12
27.94
22.28
17.49
13.84
11.36
9.80
8.66
7.34
5.39
2.63
-0.76
-4.41
-7.98
-11.35
-14.72
-18.59
-23.69
-30.57
-39.42
-49.65
-59.85
-68.01
-71.92
-69.78
-60.73
-45.19
-24.92
-2.65
18.54
36.02
48.25
55.02
57.27
56.43
53.84
50.23
45.84
40.71
35.10
29.63
25.09
21.99
20.29
19.35
18.32
16.61
14.14
11.40
9.11
7.89
7.90
8.77
9.70
9.76
8.14
4.33
-1.73
-9.64
-18.43
-26.66
-32.63
-34.73
-31.87
-23.79
-11.05
5.21
23.69
43.25
62.98
82.05
99.61
114.71
126.59
134.96
140.42
144.38
148.88
156.10
167.85
185.17
207.79
234.03
260.96
284.99
302.88
312.66
314.19
308.89
298.96
286.35
272.19
256.67
239.61
220.97
201.13
180.69
160.05
139.19
117.63
94.86
70.64
45.27
19.58
-5.22
-27.80
-47.19
-62.98
-75.59
-86.16
-96.26
-107.36
-120.30
-135.04
-150.73
-166.14
-180.13
-191.99
-201.39
-208.31
-212.70
-214.52
-213.91
-211.36
-207.77
-204.28
-201.89
-201.12
-201.89
-203.64
-205.78
-208.00
-210.47
-213.73
-218.28
-224.11
-230.37
-235.35
-236.82
-232.77
-221.99
-204.50
-181.52
-155.09
-127.42
-100.47
-75.60
-53.70
-35.35
-21.05
-11.12
-5.62
-4.09
-5.58
-8.80
-12.50
-15.74
-18.15
-19.84
-21.20
-22.69
-24.57
-26.90
-29.51
-32.11
-34.41
-36.27
-37.81
-39.51
-42.15
-46.62
-53.60
-63.07
-74.06
-84.65
-92.34
-94.76
-90.39
-79.02
-61.88
-41.14
-19.37
1.12
18.65
32.29
41.68
46.86
48.09
45.84
40.79
33.83
25.96
18.03
10.69
4.19
-1.52
-6.64
-11.42
-15.85
-19.84
-23.19
-25.83
-27.86
-29.58
-31.33
-33.38
-35.88
-38.98
-43.00
-48.49
-56.07
-65.97
-77.65
-89.46
-98.87
-103.14
-100.19
-89.43
-71.99
-50.45
-27.96
-7.47
9.05
20.70
27.57
30.27
29.55
25.99
19.98
11.76
1.66
-9.80
-21.83
-33.47
-43.76
-52.04
-57.98
-61.69
-63.63
-64.56
-65.44
-67.25
-70.82
-76.62
-84.50
-93.79
-103.48
-112.62
-120.75
-128.03
-135.09
-142.60
-150.65
-158.44
-164.27
-166.16
-162.47
-152.54
-136.86
-116.70
-93.49
-68.25
-41.18
-11.91
19.96
54.02
88.50
120.27
145.62
161.61
167.14
163.47
153.67
141.27
128.98
117.95
108.18
99.35
91.62
85.70
82.29
81.26
81.38
80.64
77.30
70.67
61.34
50.80
40.49
31.19
22.56
13.44
2.39
-11.55
-28.34
-46.70
-64.20
-77.78
-84.28
-81.35
-68.15
-45.83
-17.40
13.07
41.53
65.09
82.54
94.23
101.35
105.07
106.10
104.68
100.92
95.20
88.20
80.77
73.64
67.25
61.77
57.29
53.84
51.30
49.33
47.44
45.04
41.74
37.48
32.47
27.06
21.45
15.55
8.94
1.12
-8.47
-20.09
-33.53
-47.96
-61.77
-72.53
-77.35
-73.55
-59.72
-36.58
-7.09
24.31
53.10
76.22
92.69
103.42
110.15
114.37
116.73
117.19
115.53
111.97
107.17
101.94
96.85
91.98
87.13
82.13
77.08
72.33
68.25
65.02
62.37
59.75
56.50
52.17
46.70
40.40
33.73
27.01
20.22
12.88
4.28
-6.26
-18.84
-32.78
-46.36
-57.20
-62.82
-61.37
-52.32
-36.61
-16.41
5.63
27.09
46.34
62.56
75.53
85.26
91.73
95.03
95.49
93.87
91.27
88.78
87.14
86.49
86.42
86.23
85.41
83.98
82.69
82.94
86.54
95.15
109.61
129.35
151.91
173.42
189.55
196.99
194.67
184.05
168.32
150.95
134.26
118.69
103.17
85.92
65.31
40.07
9.32
-27.25
-68.78
-112.64
-154.32
-188.41
-210.32
-218.04
-212.73
-198.08
-178.61
-158.07
-138.57
-120.93
-105.41
-92.37
-82.30
-75.33
-70.85
-67.52
-63.89
-59.11
-53.26
-47.22
-42.11
-38.58
-36.45
-34.82
-32.59
-29.16
-24.81
-20.70
-18.46
-19.48
-24.39
-32.81
-43.41
-54.25
-63.17
-68.16
-67.77
-61.44
-49.64
-33.87
-16.21
1.25
16.94
30.09
40.63
48.79
54.70
58.22
59.11
57.30
53.19
47.66
41.78
36.48
32.25
29.08
26.67
24.69
23.00
21.56
20.34
19.12
17.47
14.92
11.18
6.33
0.75
-5.06
-10.81
-16.62
-23.01
-30.69
-40.05
-50.71
-61.27
-69.63
-73.51
-71.30
-62.72
-48.89
-32.02
-14.69
0.94
13.50
22.54
28.24
31.08
31.61
30.43
28.12
25.25
22.29
19.48
16.85
14.26
11.66
9.09
6.83
5.20
4.36
4.18
4.21
3.91
2.84
0.85
-1.86
-4.97
-8.21
-11.53
-15.13
-19.35
-24.60
-31.17
-39.09
-47.89
-56.50
-63.30
-66.46
-64.50
-56.91
-44.38
-28.67
-12.09
3.24
15.95
25.55
32.26
36.59
39.00
39.74
38.96
36.80
33.57
29.73
25.78
22.17
19.17
16.84
15.08
13.74
12.59
11.47
10.24
8.74
6.85
4.48
1.62
-1.76
-5.64
-10.07
-15.16
-21.11
-28.12
-36.23
-45.17
-54.13
-61.79
-66.50
-66.80
-61.88
-52.00
-38.45
-23.16
-8.16
4.97
15.31
22.59
26.95
28.71
28.27
26.12
22.84
19.09
15.43
12.22
9.63
7.59
5.95
4.54
3.21
1.86
0.44
-1.05
-2.57
-4.05
-5.42
-6.71
-8.05
-9.69
-11.98
-15.31
-20.03
-26.39
-34.27
-43.11
-51.75
-58.57
-61.88
-60.40
-53.70
-42.42
-28.08
-12.62
2.17
15.04
25.33
32.89
37.80
40.22
40.29
38.25
34.47
29.49
24.01
18.74
14.25
10.83
8.44
6.78
5.43
4.01
2.35
0.46
-1.50
-3.42
-5.32
-7.38
-9.90
-13.18
-17.54
-23.22
-30.27
-38.45
-46.95
-54.43
-59.23
-59.76
-55.14
-45.53
-32.16
-16.93
-1.84
11.66
22.81
31.51
37.92
42.18
44.24
44.01
41.58
37.36
32.09
26.63
21.75
17.84
14.93
12.72
10.78
8.78
6.63
4.51
2.73
1.56
1.05
0.91
0.59
-0.52
-2.87
-6.67
-11.72
-17.51
-23.19
-27.65
-29.63
-27.94
-21.76
-10.86
4.28
22.64
42.90
63.77
84.18
103.24
120.20
134.45
145.63
153.89
159.98
165.29
171.63
180.88
194.48
212.78
234.59
257.03
276.07
287.60
288.79
278.94
259.67
234.02
205.22
175.49
145.55
114.99
83.04
49.55
15.36
-17.74
-47.58
-72.26
-90.46
-101.69
-106.02
-103.86
-95.82
-82.85
-66.41
-48.65
-32.16
-19.41
-12.01
-10.13
-12.61
-17.51
-23.02
-28.18
-33.06
-38.43
-45.08
-53.23
-62.32
-71.18
-78.64
-84.02
-87.35
-89.27
-90.70
-92.36
-94.51
-96.86
-98.79
-99.55
-98.63
-95.92
-91.89
-87.49
-84.03
-82.83
-84.89
-90.41
-98.59
-107.64
-115.24
-119.16
-118.10
-112.05
-102.26
-90.72
-79.42
-69.69
-62.02
-56.32
-52.36
-50.18
-50.12
-52.55
-57.35
-63.84
-70.70
-76.54
-80.33
-81.79
-81.29
-79.61
-77.49
-75.33
-73.20
-71.01
-68.73
-66.50
-64.63
-63.36
-62.86
-63.20
-64.49
-66.91
-70.57
-75.20
-79.91
-83.12
-82.92
-77.75
-66.99
-51.34
-32.55
-12.87
5.65
21.62
34.39
43.75
49.66
52.04
50.90
46.52
39.62
31.31
22.83
15.18
8.86
3.81
-0.38
-4.15
-7.77
-11.18
-14.13
-16.39
-17.92
-18.98
-20.14
-22.04
-25.33
-30.51
-37.77
-46.89
-57.09
-66.98
-74.68
-78.24
-76.15
-67.93
-54.23
-36.85
-18.02
0.11
16.04
29.08
39.11
46.33
50.93
53.00
52.64
50.07
45.78
40.45
34.81
29.42
24.61
20.39
16.58
12.94
9.33
5.78
2.53
-0.19
-2.26
-3.81
-5.26
-7.13
-9.99
-14.34
-20.51
-28.60
-38.28
-48.66
-58.10
-64.48
-65.70
-60.37
-48.42
-31.19
-11.15
9.00
26.95
41.34
51.69
58.20
61.28
61.40
58.88
54.06
47.34
39.32
30.80
22.66
15.75
10.59
7.23
5.25
3.94
2.60
0.83
-1.39
-3.80
-6.11
-8.22
-10.26
-12.50
-15.25
-18.83
-23.57
-29.88
-38.06
-48.00
-58.79
-68.54
-74.70
-74.73
-67.11
-51.90
-30.96
-7.23
16.12
36.64
53.09
65.26
73.53
78.39
80.08
78.69
74.46
67.88
59.76
51.14
42.98
35.96
30.34
26.00
22.47
19.20
15.78
12.03
8.13
4.45
1.27
-1.34
-3.70
-6.43
-10.26
-15.83
-23.60
-33.71
-45.86
-59.09
-71.66
-81.08
-84.73
-80.60
-68.20
-48.89
-25.53
-1.65
19.77
36.90
49.29
57.30
61.51
62.27
59.70
54.02
45.85
36.34
26.76
18.24
11.30
5.89
1.53
-2.36
-6.18
-10.07
-13.86
-17.27
-19.98
-21.85
-22.96
-23.61
-24.41
-26.14
-29.58
-35.40
-43.82
-54.42
-65.95
-76.33
-83.03
-83.64
-76.71
-62.18
-41.59
-17.59
6.88
29.34
48.32
63.23
73.99
80.64
83.07
81.23
75.36
66.29
55.39
44.24
34.22
26.07
19.74
14.45
9.18
3.09
-4.07
-11.86
-19.39
-25.75
-30.44
-33.62
-36.04
-38.87
-43.46
-51.15
-62.98
-79.16
-98.61
-118.57
-135.10
-144.25
-143.64
-133.67
-117.59
-100.33
-86.64
-79.41
-79.15
-84.48
-93.29
-103.63
-113.93
-122.66
-128.01
-128.04
-121.31
-107.71
-88.71
-66.99
-45.49
-26.51
-11.00
1.10
10.48
17.72
23.05
26.35
27.84
28.32
29.07
31.17
34.74
38.45
39.91
36.66
27.30
12.04
-7.35
-28.25
-47.90
-63.86
-74.01
-76.72
-70.92
-56.73
-35.78
-11.03
13.92
36.16
54.44
69.42
82.97
96.62
110.50
122.81
130.66
131.60
125.01
112.60
97.71
83.78
73.04
65.85
61.29
58.08
55.51
53.52
52.28
51.53
50.44
47.88
43.15
36.24
27.88
18.94
9.95
0.71
-9.26
-20.24
-31.53
-41.38
-47.40
-47.26
-39.49
-23.79
-1.09
26.52
55.94
83.55
105.83
120.30
126.28
125.06
119.28
111.72
104.31
97.60
91.26
84.79
78.29
72.40
67.88
64.94
63.02
61.11
58.32
54.34
49.51
44.51
39.98
36.08
32.46
28.37
22.99
15.63
6.03
-5.69
-18.86
-32.22
-44.06
-52.31
-55.10
-51.21
-40.57
-24.34
-4.69
15.81
34.81
50.59
62.34
69.97
73.95
74.94
73.68
70.82
66.94
62.45
57.66
52.79
47.96
43.37
39.19
35.61
32.73
30.46
28.48
26.32
23.52
19.84
15.33
10.30
5.11
-0.03
-5.22
-10.88
-17.61
-25.99
-36.30
-48.22
-60.68
-71.85
-79.31
-80.63
-74.01
-59.11
-37.41
-12.01
13.25
34.90
50.85
60.73
65.52
66.79
65.87
63.49
59.92
55.27
49.88
44.34
39.28
35.09
31.81
29.17
26.81
24.47
22.05
19.61
17.33
15.32
13.55
11.83
9.80
7.15
3.66
-0.68
-5.73
-11.45
-18.03
-25.84
-35.11
-45.44
-55.55
-63.31
-66.39
-63.11
-53.17
-37.81
-19.39
-0.55
16.59
30.82
41.81
49.68
54.65
56.81
56.19
53.00
47.68
40.95
33.69
26.71
20.63
15.80
12.27
9.74
7.79
5.94
3.85
1.47
-1.02
-3.35
-5.39
-7.19
-9.07
-11.39
-14.56
-18.90
-24.70
-32.14
-41.00
-50.48
-59.06
-64.73
-65.62
-60.64
-49.94
-34.87
-17.53
-0.07
15.88
29.36
40.05
47.89
52.90
55.10
54.62
51.82
47.31
41.90
36.37
31.39
27.33
24.30
22.16
20.63
19.41
18.23
16.97
15.62
14.28
13.08
12.08
11.16
10.04
8.28
5.36
0.94
-5.02
-11.96
-18.68
-23.44
-24.38
-20.07
-10.02
5.07
23.59
43.58
63.39
82.01
99.11
114.69
128.70
140.93
151.08
159.10
165.39
170.79
176.43
183.59
193.52
207.20
225.00
246.12
268.28
287.93
301.19
305.09
298.75
283.63
262.79
239.59
216.39
193.95
171.76
148.80
124.23
97.59
68.82
38.31
7.23
-22.23
-46.95
-63.81
-71.02
-69.10
-61.09
-51.54
-44.98
-44.40
-50.68
-62.97
-79.61
-98.98
-119.82
-141.19
-162.20
-181.81
-199.06
-213.35
-224.58
-233.21
-240.00
-245.65
-250.45
-254.12
-255.97
-255.21
-251.35
-244.50
-235.48
-225.58
-216.21
-208.57
-203.36
-200.64
-199.79
-199.44
-197.68
-192.37
-181.60
-164.26
-140.43
-111.52
-79.87
-48.28
-19.29
5.26
24.40
37.91
46.10
49.51
48.83
44.83
38.40
30.53
22.24
14.39
7.59
2.02
-2.45
-6.20
-9.54
-12.66
-15.49
-17.85
-19.54
-20.52
-21.06
-21.66
-22.92
-25.43
-29.65
-35.79
-43.84
-53.39
-63.54
-72.83
-79.33
-81.05
-76.55
-65.57
-49.17
-29.65
-9.80
7.79
21.44
30.53
35.36
36.69
35.31
31.83
26.64
20.10
12.67
4.96
-2.37
-8.76
-13.86
-17.61
-20.18
-21.90
-23.12
-24.17
-25.21
-26.33
-27.56
-28.92
-30.59
-32.86
-36.20
-41.05
-47.79
-56.48
-66.73
-77.65
-87.84
-95.47
-98.68
-95.97
-86.70
-71.37
-51.62
-29.83
-8.53
10.22
25.23
36.26
43.73
48.39
50.84
51.49
50.46
47.81
43.80
38.90
33.79
29.13
25.35
22.50
20.37
18.51
16.54
14.25
11.59
8.61
5.35
1.76
-2.28
-6.88
-12.06
-17.89
-24.46
-31.99
-40.76
-50.76
-61.35
-71.03
-77.56
-78.57
-72.49
-59.14
-40.00
-17.66
4.97
25.52
42.64
55.93
65.53
71.85
75.26
76.16
75.00
72.40
68.91
64.97
60.80
56.51
52.22
48.17
44.67
41.89
39.80
38.08
36.26
33.93
30.89
27.14
22.78
17.95
12.64
6.81
0.33
-6.90
-15.11
-24.56
-35.45
-47.54
-59.83
-70.46
-76.99
-77.25
-70.08
-55.87
-36.59
-15.06
5.83
23.96
38.27
48.69
55.61
59.53
60.81
59.71
56.54
51.81
46.16
40.17
34.27
28.59
23.13
17.89
13.05
8.90
5.73
3.56
2.03
0.49
-1.72
-4.97
-9.21
-14.01
-18.79
-23.16
-27.08
-30.90
-35.24
-40.76
-47.98
-56.94
-67.05
-76.85
-84.25
-86.87
-82.84
-71.41
-53.33
-30.69
-6.32
17.05
37.33
53.41
64.94
72.03
75.07
74.65
71.52
66.64
61.03
55.43
50.27
45.49
40.84
36.10
31.32
26.92
23.35
20.94
19.57
18.73
17.79
16.21
13.78
10.65
7.10
3.35
-0.63
-5.09
-10.47
-17.28
-25.89
-36.36
-48.16
-59.96
-69.70
-74.98
-73.87
-65.62
-51.06
-32.42
-12.60
5.78
21.02
32.51
40.45
45.25
47.20
46.38
42.84
36.82
28.87
19.77
10.34
1.29
-6.89
-13.97
-19.96
-25.08
-29.71
-34.24
-38.78
-42.92
-45.68
-45.74
-41.86
-33.54
-21.37
-7.21
6.13
15.36
17.24
9.24
-9.80
-39.09
-75.44
-113.58
-147.05
-169.93
-178.47
-172.21
-153.91
-128.39
-100.83
-75.17
-53.39
-35.78
-21.67
-10.46
-1.96
3.67
6.34
6.54
5.34
4.05
3.71
4.63
6.31
7.92
8.87
9.19
9.51
10.58
12.69
15.42
17.72
18.45
16.94
13.33
8.31
2.74
-2.91
-8.88
-15.96
-25.02
-36.32
-49.00
-61.01
-69.60
-72.17
-67.15
-54.62
-36.27
-14.83
6.76
26.18
42.09
54.09
62.38
67.41
69.62
69.39
67.16
63.36
58.54
53.17
47.77
42.73
38.39
35.04
32.86
31.99
32.60
34.88
38.94
44.40
50.20
54.55
55.45
51.57
42.85
30.64
16.99
3.74
-8.32
-19.37
-29.85
-39.40
-46.53
-48.93
-44.68
-33.33
-16.33
3.48
23.00
39.96
53.40
63.39
70.61
75.55
78.25
78.51
76.18
71.47
65.07
57.97
51.15
45.33
40.77
37.36
34.73
32.50
30.40
28.26
26.04
23.68
21.14
18.37
15.32
11.98
8.33
4.23
-0.54
-6.34
-13.55
-22.24
-31.91
-41.29
-48.48
-51.47
-48.73
-39.94
-26.10
-9.25
8.25
24.41
38.06
48.84
56.80
62.04
64.48
63.96
60.50
54.52
46.88
38.69
31.05
24.69
19.90
16.44
13.83
11.55
9.32
7.21
5.46
4.31
3.69
3.15
2.01
-0.37
-4.45
-10.36
-18.06
-27.37
-37.85
-48.43
-57.20
-61.70
-59.71
-50.33
-34.61
-15.42
3.73
19.98
32.13
40.66
46.86
51.68
55.19
56.60
55.10
50.61
44.02
36.84
30.45
25.54
21.98
19.06
16.07
12.67
9.04
5.68
3.08
1.34
0.15
-1.11
-3.16
-6.60
-11.74
-18.68
-27.32
-37.32
-48.02
-58.24
-66.29
-70.34
-69.01
-61.80
-49.47
-33.75
-16.76
-0.37
14.20
26.50
36.45
44.04
49.04
51.12
50.12
46.31
40.49
33.86
27.61
22.46
18.57
15.46
12.46
9.05
5.20
1.34
-1.93
-4.18
-5.49
-6.41
-7.70
-10.11
-14.12
-19.96
-27.61
-36.70
-46.40
-55.30
-61.57
-63.40
-59.56
-49.91
-35.49
-18.23
-0.30
16.43
30.78
42.23
50.70
56.28
59.13
59.45
57.64
54.28
50.17
46.11
42.72
40.32
38.78
37.70
36.59
35.17
33.57
32.31
32.01
33.07
35.36
38.22
40.70
41.92
41.41
39.21
35.78
31.83
28.20
25.87
26.04
30.07
39.14
53.99
74.57
100.06
129.12
160.43
193.09
226.63
260.50
293.36
322.61
344.58
355.54
353.12
337.30
310.53
276.83
240.24
203.44
167.29
131.36
95.15
59.04
24.30
-7.61
-36.03
-61.43
-84.95
-107.31
-128.03
-145.61
-158.43
-166.00
-169.64
-171.97
-175.55
-181.48
-188.76
-194.78
-196.61
-192.36
-181.87
-166.61
-148.83
-130.84
-114.33
-100.29
-89.13
-80.96
-75.84
-73.75
-74.66
-78.21
-83.69
-90.09
-96.26
-101.33
-104.88
-107.02
-108.24
-109.08
-109.80
-110.31
-110.23
-109.12
-106.81
-103.57
-100.07
-97.23
-95.96
-96.95
-100.41
-105.99
-112.54
-118.34
-121.27
-119.39
-111.42
-97.17
-77.55
-54.33
-29.66
-5.54
16.37
34.86
49.07
58.48
62.92
62.65
58.44
51.46
43.11
34.63
26.89
20.22
14.45
9.19
4.06
-1.14
-6.29
-11.11
-15.29
-18.64
-21.27
-23.51
-25.86
-29.04
-33.70
-40.40
-49.17
-59.22
-68.79
-75.45
-76.81
-71.39
-59.24
-41.97
-22.13
-2.25
15.94
31.71
45.09
56.19
64.80
70.36
72.33
70.63
65.92
59.39
52.42
46.00
40.44
35.49
30.54
25.09
18.99
12.49
6.10
0.30
-4.66
-8.89
-12.76
-16.76
-21.52
-27.58
-35.33
-44.77
-55.22
-65.23
-72.78
-75.83
-73.02
-64.24
-50.74
-34.64
-18.16
-2.93
10.26
21.35
30.34
37.04
40.89
41.36
38.46
32.94
26.24
19.90
15.09
12.18
10.78
10.08
9.34
8.19
6.69
5.14
3.92
3.20
2.91
2.76
2.26
0.88
-1.96
-6.83
-14.01
-23.36
-34.01
-44.33
-52.20
-55.45
-52.67
-43.63
-29.45
-12.18
5.83
22.68
37.21
48.94
57.77
63.64
66.41
66.01
62.72
57.24
50.55
43.70
37.38
31.84
26.92
22.22
17.43
12.41
7.32
2.48
-1.82
-5.47
-8.62
-11.68
-15.18
-19.56
-25.18
-32.21
-40.71
-50.48
-60.93
-70.83
-78.38
-81.54
-78.66
-69.12
-53.68
-34.29
-13.49
6.35
23.62
37.59
48.22
55.76
60.49
62.57
62.18
59.58
55.23
49.70
43.60
37.52
31.86
26.88
22.63
18.99
15.71
12.49
9.03
5.14
0.76
-4.01
-8.98
-13.99
-18.96
-24.00
-29.40
-35.61
-43.15
-52.36
-63.05
-74.24
-84.07
-90.24
-90.56
-83.83
-70.28
-51.58
-30.20
-8.67
11.18
28.33
42.50
53.65
61.82
67.04
69.46
69.50
67.76
64.81
61.05
56.61
51.51
45.83
39.88
34.18
29.31
25.59
23.01
21.07
19.03
16.17
12.10
6.86
0.92
-5.07
-10.62
-15.60
-20.34
-25.55
-32.07
-40.63
-51.40
-63.70
-75.86
-85.41
-89.71
-86.76
-76.06
-58.84
-37.71
-15.75
4.49
21.60
35.30
45.98
54.14
60.00
63.60
65.01
64.61
63.04
60.97
58.86
56.73
54.35
51.41
47.75
43.60
39.44
35.88
33.37
32.05
31.61
31.41
30.65
28.67
25.11
20.08
14.13
8.00
2.44
-2.13
-5.86
-9.47
-14.13
-20.83
-29.85
-40.13
-49.24
-53.89
-51.03
-38.95
-17.94
9.61
39.73
67.65
88.69
99.13
97.05
83.13
60.84
35.88
14.63
2.30
1.18
10.04
24.77
39.79
49.92
51.73
44.13
28.23
6.76
-16.83
-39.19
-57.76
-71.14
-79.18
-82.76
-83.29
-82.43
-81.64
-81.90
-83.63
-86.49
-89.73
-92.49
-94.40
-95.77
-97.53
-100.54
-104.93
-109.63
-112.51
-111.19
-103.99
-90.62
-72.34
-51.38
-30.28
-11.06
4.91
17.00
24.94
28.79
28.89
25.95
21.11
15.61
10.58
6.67
3.96
2.07
0.47
-1.23
-2.98
-4.39
-4.93
-4.28
-2.64
-0.67
0.75
0.93
-0.28
-2.51
-5.06
-7.35
-9.16
-10.79
-12.90
-16.23
-21.47
-28.87
-38.24
-48.65
-58.42
-65.32
-67.15
-62.45
-51.06
-34.27
-14.42
5.81
24.22
39.49
51.17
59.38
64.42
66.64
66.41
64.22
60.63
56.25
51.51
46.67
41.90
37.38
33.45
30.49
28.87
28.75
29.97
32.07
34.42
36.50
37.88
38.40
38.03
36.76
34.56
31.35
26.90
21.06
13.61
4.28
-6.95
-19.55
-31.94
-41.62
-45.87
-42.89
-32.76
-17.60
-0.73
14.78
27.28
36.77
44.26
50.67
56.06
59.73
60.85
59.28
55.69
51.18
46.69
42.51
38.43
34.16
29.73
25.51
22.09
19.97
