1540453708.00
64.000000
-0.00
-0.00
-0.00
-0.00
-0.00
-0.00
-0.00
-0.00
-0.00
-0.00
0.00
0.01
0.01
-0.00
-0.03
-0.05
-0.05
0.00
0.13
0.36
0.66
1.01
1.37
1.72
2.06
2.40
2.79
3.24
3.80
4.42
5.06
5.66
6.20
6.68
7.15
7.68
8.31
9.14
10.09
11.04
11.88
12.56
13.14
13.76
14.65
15.96
17.91
20.32
22.90
25.38
27.58
29.57
31.68
34.32
37.81
42.54
48.15
54.10
59.83
64.97
69.58
74.14
79.34
85.71
93.76
103.00
112.62
121.73
129.77
136.75
143.30
150.75
157.77
166.64
177.95
191.79
206.97
220.57
228.25
225.36
208.53
176.87
132.76
80.05
23.07
-34.94
-92.44
-149.16
-205.23
-260.37
-313.74
-363.87
-409.83
-450.91
-486.50
-515.74
-537.23
-549.22
-549.96
-538.37
-514.21
-478.67
-433.88
-382.45
-327.02
-269.84
-212.63
-156.66
-102.95
-52.37
-5.90
35.58
71.43
101.35
125.50
144.38
158.69
169.15
176.37
180.75
182.57
182.07
179.51
175.23
169.65
163.18
156.15
148.81
141.30
133.69
126.02
118.33
110.69
103.16
95.80
88.68
81.83
75.25
68.95
62.95
57.25
51.86
46.78
42.03
37.59
33.45
29.61
26.07
22.81
19.83
17.11
14.67
12.48
10.54
8.83
7.35
6.07
4.97
4.05
3.27
2.62
2.09
1.65
1.30
1.01
0.79
0.61
0.47
0.37
0.29
0.23
0.19
0.16
0.15
0.14
0.15
0.17
0.19
0.22
0.25
0.29
0.33
0.37
0.41
0.46
0.51
0.55
0.61
0.66
0.72
0.78
0.84
0.91
0.99
1.08
1.18
1.29
1.41
1.55
1.70
1.87
2.06
2.27
2.50
2.76
3.05
3.37
3.71
4.09
4.50
4.95
5.44
5.96
6.52
7.12
7.77
8.46
9.19
9.97
10.79
11.66
12.57
13.53
14.55
15.63
16.78
17.99
19.24
20.52
21.78
22.94
23.93
24.62
24.90
24.63
23.73
22.12
19.79
16.76
13.09
8.94
4.50
-0.04
-4.45
-8.53
-12.09
-15.01
-17.18
-18.58
-19.23
-19.21
-18.65
-17.71
-16.50
-15.13
-13.68
-12.15
-10.55
-8.84
-7.07
-5.28
-3.50
-1.77
-0.06
1.63
3.39
5.28
7.36
9.53
11.68
13.73
15.64
17.45
19.26
21.27
23.67
26.64
29.94
33.30
36.48
39.33
41.82
44.13
46.59
49.59
53.43
57.67
61.83
65.40
68.05
69.75
70.82
71.83
73.39
75.88
78.60
80.63
81.01
78.93
73.99
66.09
55.05
39.99
23.97
7.42
-9.93
-28.61
-49.18
-72.10
-97.64
-125.57
-154.63
-182.19
-205.27
-220.47
-225.39
-219.73
-205.55
-186.46
-166.27
-147.73
-131.94
-119.39
-110.08
-104.22
-102.20
-103.90
-107.95
-111.48
-110.76
-102.43
-85.11
-59.56
-28.59
4.00
34.71
61.25
82.74
99.30
111.28
118.59
120.87
117.88
109.96
98.30
84.79
71.46
60.00
51.30
45.29
41.30
38.35
35.61
32.58
29.16
25.55
22.00
18.63
15.32
11.74
7.41
1.83
-5.50
-14.90
-26.35
-39.15
-51.80
-61.98
-67.14
-65.21
-55.40
-38.56
-16.97
6.34
28.48
47.36
61.87
71.75
77.07
78.09
75.10
68.60
59.46
48.86
38.16
28.54
20.78
15.09
11.19
8.49
6.30
4.08
1.48
-1.52
-4.77
-7.99
-10.99
-13.75
-16.60
-20.15
-25.20
-32.52
-42.45
-54.60
-67.64
-79.33
-86.98
-88.08
-81.15
-66.17
-44.74
-19.54
6.33
30.09
49.79
64.43
73.77
78.10
78.01
74.29
67.86
59.71
50.78
41.92
33.76
26.69
20.88
16.28
12.71
9.91
7.56
5.43
3.31
1.09
-1.31
-4.00
-7.12
-10.83
-15.33
-20.84
-27.66
-36.10
-46.39
-58.30
-70.80
-81.95
-89.16
-89.92
-82.62
-67.28
-45.62
-20.56
4.57
27.06
45.22
58.49
67.05
71.43
72.19
69.88
65.09
58.53
51.00
43.27
35.92
29.32
23.61
18.84
15.00
12.01
9.71
7.81
5.92
3.70
0.93
-2.38
-6.03
-9.85
-13.78
-18.05
-23.18
-29.80
-38.42
-49.07
-61.01
-72.64
-81.63
-85.51
-82.36
-71.46
-53.63
-31.00
-6.48
17.03
37.26
52.88
63.48
69.31
70.95
69.13
64.61
58.16
50.57
42.58
34.79
27.70
21.59
16.57
12.63
9.65
7.45
5.88
4.66
3.51
2.16
0.34
-2.08
-5.13
-8.72
-12.75
-17.18
-22.13
-27.97
-35.14
-43.91
-53.96
-64.09
-72.34
-76.41
-74.45
-65.77
-51.12
-32.48
-12.32
7.09
24.15
37.90
47.88
53.78
55.43
52.89
46.64
37.66
27.26
16.81
7.49
0.07
-5.18
-8.46
-10.26
-11.25
-12.03
-13.01
-14.26
-15.68
-17.07
-18.34
-19.67
-21.47
-24.32
-28.83
-35.49
-44.27
-54.51
-64.77
-72.94
-76.79
-74.58
-65.67
-50.75
-31.67
-10.83
9.46
27.44
42.03
52.69
59.24
61.66
60.11
55.03
47.21
37.73
27.82
18.61
10.89
4.97
0.71
-2.31
-4.61
-6.57
-8.34
-9.93
-11.34
-12.69
-14.32
-16.71
-20.45
-26.08
-33.97
-44.06
-55.65
-67.26
-76.71
-81.65
-80.15
-71.40
-55.97
-35.64
-12.90
9.72
30.17
47.11
59.79
67.89
71.40
70.61
66.10
58.79
49.87
40.56
31.93
24.66
18.94
14.55
10.99
7.74
4.53
1.34
-1.60
-4.08
-6.06
-7.87
-10.14
-13.67
-19.23
-27.30
-37.76
-49.68
-61.31
-70.32
-74.30
-71.47
-61.27
-44.57
-23.45
-0.58
21.50
40.90
56.52
67.93
75.05
78.00
77.03
72.61
65.53
56.88
47.89
39.58
32.57
26.89
22.14
17.76
13.30
8.62
3.98
-0.18
-3.49
-5.78
-7.36
-8.91
-11.41
-15.88
-23.15
-33.43
-46.06
-59.39
-70.97
-78.13
-78.73
-71.77
-57.72
-38.39
-16.27
6.07
26.57
43.92
57.40
66.68
71.59
72.17
68.76
62.15
53.53
44.24
35.46
27.98
22.07
17.57
14.07
11.11
8.35
5.60
2.81
0.02
-2.72
-5.47
-8.43
-11.97
-16.57
-22.78
-31.00
-41.26
-52.96
-64.66
-74.18
-79.03
-77.14
-67.61
-51.09
-29.74
-6.49
15.85
35.25
50.73
62.06
69.34
72.64
72.00
67.66
60.32
51.15
41.59
32.90
25.79
20.33
16.03
12.25
8.50
4.69
0.99
-2.27
-4.90
-6.93
-8.62
-10.39
-12.74
-16.23
-21.41
-28.75
-38.41
-49.90
-61.85
-72.12
-78.22
-78.01
-70.37
-55.64
-35.53
-12.62
10.30
30.88
47.51
59.42
66.49
69.00
67.49
62.63
55.22
46.20
36.61
27.45
19.58
13.46
9.07
5.97
3.52
1.19
-1.28
-3.80
-6.16
-8.22
-10.09
-12.10
-14.71
-18.31
-23.21
-29.71
-37.97
-47.88
-58.71
-68.89
-76.17
-78.17
-73.27
-61.19
-43.25
-21.90
0.11
20.46
37.69
51.02
60.10
64.70
64.74
60.47
52.75
42.98
32.79
23.58
16.21
10.82
7.03
4.30
2.11
0.16
-1.66
-3.42
-5.18
-7.00
-9.00
-11.29
-14.06
-17.63
-22.44
-28.92
-37.35
-47.47
-58.29
-68.02
-74.40
-75.25
-69.18
-56.11
-37.41
-15.43
7.10
27.81
45.09
58.10
66.59
70.56
70.19
65.86
58.28
48.59
38.15
28.35
20.10
13.78
9.14
5.59
2.58
-0.23
-2.82
-5.01
-6.64
-7.77
-8.69
-9.88
-11.93
-15.48
-21.10
-29.18
-39.55
-51.25
-62.43
-70.63
-73.44
-69.27
-57.89
-40.49
-19.30
3.04
24.18
42.37
56.60
66.39
71.64
72.52
69.45
63.17
54.61
44.91
35.07
25.92
17.93
11.27
5.87
1.55
-1.89
-4.61
-6.65
-8.03
-8.82
-9.22
-9.72
-11.00
-13.91
-19.12
-27.00
-37.23
-48.80
-59.97
-68.55
-72.41
-69.96
-60.62
-45.03
-24.95
-2.76
19.05
38.43
54.00
65.08
71.45
73.22
70.76
64.64
55.79
45.35
34.60
24.72
16.49
10.23
5.74
2.53
0.05
-2.11
-4.06
-5.77
-7.14
-8.23
-9.30
-10.79
-13.27
-17.37
-23.63
-32.32
-43.10
-54.81
-65.44
-72.51
-73.75
-67.79
-54.64
-35.75
-13.52
9.35
30.49
48.19
61.46
69.85
73.35
72.22
67.07
58.82
48.62
37.81
27.60
18.93
12.26
7.52
4.22
1.75
-0.42
-2.52
-4.45
-6.02
-7.11
-7.92
-9.00
-11.08
-14.86
-20.84
-29.15
-39.44
-50.80
-61.75
-70.33
-74.44
-72.34
-63.22
-47.53
-27.01
-4.20
18.14
37.67
52.92
63.30
68.89
70.09
67.47
61.61
53.27
43.44
33.31
24.04
16.50
10.98
7.15
4.30
1.66
-1.13
-4.01
-6.55
-8.29
-9.13
-9.39
-9.86
-11.48
-15.15
-21.44
-30.47
-41.69
-53.79
-64.81
-72.38
-74.34
-69.37
-57.39
-39.67
-18.41
3.83
24.80
42.82
56.90
66.49
71.38
71.64
67.67
60.28
50.71
40.37
30.56
22.15
15.45
10.24
6.02
2.31
-1.11
-4.19
-6.73
-8.54
-9.73
-10.70
-12.13
-14.78
-19.32
-26.18
-35.27
-45.89
-56.59
-65.33
-69.89
-68.49
-60.40
-46.19
-27.60
-6.97
13.36
31.61
46.62
57.77
64.69
67.20
65.36
59.63
50.97
40.74
30.40
21.15
13.61
7.81
3.32
-0.43
-3.84
-6.93
-9.48
-11.20
-11.99
-12.15
-12.36
-13.57
-16.75
-22.62
-31.39
-42.47
-54.37
-64.90
-71.57
-72.29
-66.03
-53.18
-35.36
-14.96
5.57
24.27
39.80
51.36
58.45
60.83
58.56
52.23
42.97
32.29
21.71
12.35
4.77
-1.11
-5.69
-9.45
-12.65
-15.29
-17.22
-18.27
-18.47
-18.11
-17.75
-18.10
-19.94
-23.94
-30.43
-39.13
-48.99
-58.17
-64.33
-65.26
-59.50
-46.91
-28.75
-7.25
14.94
35.49
52.77
65.82
74.23
77.93
77.14
72.38
64.59
55.00
44.97
35.67
27.76
21.39
16.22
11.73
7.47
3.30
-0.63
-4.00
-6.57
-8.41
-9.91
-11.78
-14.80
-19.66
-26.76
-35.94
-46.41
-56.66
-64.65
-68.32
-66.11
-57.48
-43.11
-24.77
-4.75
14.64
31.52
44.67
53.39
57.44
56.93
52.32
44.46
34.55
23.98
14.03
5.65
-0.77
-5.36
-8.62
-11.04
-12.90
-14.16
-14.59
-14.15
-13.11
-12.16
-12.25
-14.24
-18.69
-25.69
-34.74
-44.74
-54.00
-60.45
-62.09
-57.47
-46.30
-29.56
-9.41
11.53
30.79
46.63
58.11
65.00
67.47
65.93
61.00
53.55
44.65
35.41
26.74
19.16
12.74
7.26
2.45
-1.80
-5.35
-7.92
-9.40
-9.98
-10.25
-11.21
-13.97
-19.41
-27.92
-38.98
-51.15
-62.23
-69.67
-71.27
-65.75
-53.18
-34.96
-13.36
9.03
29.92
47.61
61.08
69.82
73.71
72.98
68.21
60.44
50.96
41.12
31.99
24.07
17.31
11.29
5.60
0.07
-5.14
-9.66
-13.24
-15.91
-18.09
-20.48
-23.92
-29.25
-36.98
-47.09
-58.65
-69.75
-77.77
-80.04
-74.76
-61.66
-42.25
-19.31
3.99
25.00
42.16
54.95
63.56
68.33
69.59
67.59
62.71
55.66
47.45
39.18
31.79
25.79
21.14
17.39
13.93
10.32
6.45
2.57
-0.88
-3.62
-5.69
-7.58
-10.07
-14.03
-20.16
-28.83
-39.86
-52.44
-65.04
-75.48
-81.35
-80.56
-72.09
-56.36
-35.22
-11.49
11.88
32.51
49.06
61.10
68.85
72.72
73.07
70.24
64.67
57.05
48.35
39.67
31.98
25.87
21.39
18.20
15.73
13.47
11.13
8.65
6.11
3.58
1.05
-1.61
-4.57
-8.08
-12.46
-18.09
-25.43
-34.79
-46.08
-58.45
-70.21
-78.99
-82.32
-78.38
-66.63
-48.09
-25.05
-0.49
22.77
42.59
57.79
68.05
73.59
74.95
72.84
68.07
61.56
54.20
46.75
39.75
33.48
28.09
23.70
20.41
18.30
17.35
17.33
17.81
18.20
17.93
16.52
13.77
9.74
4.70
-0.96
-6.97
-13.29
-20.18
-28.16
-37.74
-49.06
-61.50
-73.55
-83.01
-87.50
-85.24
-75.63
-59.58
-39.27
-17.50
2.97
20.09
32.71
40.48
43.64
42.78
38.76
32.66
25.74
19.26
14.20
11.08
9.85
10.10
11.25
12.75
14.25
15.52
16.35
16.53
15.88
14.31
11.90
8.85
5.39
1.65
-2.45
-7.15
-12.78
-19.69
-28.11
-38.02
-48.91
-59.64
-68.43
-73.08
-71.59
-62.76
-46.85
-25.58
-1.85
21.17
40.81
55.49
64.80
69.13
69.19
65.63
59.01
49.97
39.39
28.44
18.39
10.18
4.24
0.36
-2.09
-3.82
-5.36
-6.96
-8.65
-10.43
-12.32
-14.46
-17.06
-20.33
-24.55
-30.09
-37.42
-46.88
-58.32
-70.72
-82.09
-89.79
-91.26
-84.94
-70.76
-50.25
-26.03
-1.04
22.15
41.76
56.75
66.66
71.42
71.29
66.94
59.39
49.93
39.90
30.39
22.14
15.44
10.23
6.26
3.19
0.70
-1.48
-3.54
-5.62
-7.77
-10.05
-12.52
-15.33
-18.75
-23.24
-29.35
-37.65
-48.28
-60.63
-73.15
-83.37
-88.57
-86.48
-76.14
-58.23
-34.90
-9.15
16.03
38.23
55.97
68.64
76.26
79.17
77.99
73.41
66.26
57.44
47.84
38.32
29.58
22.06
16.02
11.49
8.32
6.28
5.04
4.21
3.40
2.29
0.59
-1.88
-5.25
-9.64
-15.25
-22.32
-31.14
-41.78
-53.81
-66.06
-76.61
-83.06
-83.16
-75.51
-60.13
-38.53
-13.36
12.30
35.66
54.80
68.74
77.28
80.76
79.74
74.98
67.35
57.85
47.51
37.27
27.89
19.86
13.43
8.62
5.32
3.29
2.16
1.52
0.96
0.16
-1.10
-2.94
-5.48
-8.89
-13.49
-19.67
-27.78
-37.97
-49.86
-62.40
-73.74
-81.56
-83.54
-78.05
-64.78
-44.88
-20.79
4.45
27.98
47.63
62.24
71.54
75.86
75.77
72.03
65.42
56.83
47.22
37.49
28.42
20.57
14.17
9.27
5.70
3.25
1.65
0.61
-0.19
-1.07
-2.32
-4.19
-6.79
-10.24
-14.63
-20.12
-26.98
-35.54
-45.91
-57.69
-69.71
-79.90
-85.73
-84.88
-76.01
-59.35
-36.70
-10.97
14.64
37.43
55.68
68.65
76.31
79.01
77.33
71.98
63.87
54.04
43.61
33.55
24.63
17.28
11.66
7.70
5.16
3.73
3.02
2.65
2.25
1.48
0.08
-2.17
-5.42
-9.70
-15.09
-21.66
-29.59
-39.03
-49.94
-61.73
-73.01
-81.71
-85.47
-82.34
-71.48
-53.48
-30.29
-4.69
20.40
42.54
60.09
72.25
78.89
80.36
77.33
70.70
61.54
50.99
40.13
29.90
21.02
13.89
8.67
5.18
3.06
1.85
1.09
0.42
-0.44
-1.71
-3.56
-6.13
-9.54
-13.88
-19.25
-25.85
-33.97
-43.79
-55.10
-66.91
-77.41
-84.25
-85.14
-78.60
-64.51
-44.17
-19.96
5.28
28.88
48.82
63.86
73.53
77.90
77.50
73.08
65.58
56.04
45.46
34.85
25.07
16.78
10.38
5.91
3.08
1.36
0.12
-1.15
-2.78
-4.84
-7.26
-9.92
-12.79
-16.03
-19.95
-25.02
-31.73
-40.36
-50.81
-62.32
-73.38
-81.82
-85.31
-81.93
-70.94
-53.03
-30.27
-5.57
18.08
38.31
53.71
63.86
69.02
69.71
66.57
60.22
51.44
41.18
30.65
21.03
13.26
7.81
4.56
2.94
2.15
1.46
0.42
-1.06
-2.89
-4.88
-7.00
-9.43
-12.53
-16.77
-22.63
-30.44
-40.25
-51.68
-63.69
-74.54
-81.99
-83.82
-78.45
-65.60
-46.43
-23.35
0.74
23.09
41.77
55.78
64.89
69.33
69.48
65.80
58.93
49.74
39.41
29.23
20.33
13.44
8.68
5.73
3.97
2.80
1.83
0.86
-0.19
-1.41
-2.99
-5.18
-8.26
-12.47
-18.06
-25.31
-34.42
-45.30
-57.33
-69.14
-78.70
-83.73
-82.34
-73.60
-57.89
-36.90
-13.15
10.60
31.95
49.19
61.47
68.67
71.11
69.37
64.18
56.41
47.06
37.28
28.15
20.58
15.01
11.41
9.31
8.04
6.91
5.46
3.54
1.21
-1.37
-4.07
-6.98
-10.41
-14.81
-20.68
-28.43
-38.17
-49.57
-61.63
-72.66
-80.47
-82.81
-78.06
-65.80
-47.01
-23.92
0.65
23.90
43.69
58.68
68.40
73.01
73.07
69.40
62.95
54.71
45.64
36.66
28.51
21.75
16.63
13.06
10.75
9.25
8.18
7.27
6.38
5.34
3.93
1.87
-1.13
-5.26
-10.57
-17.15
-25.12
-34.72
-46.07
-58.83
-71.87
-83.18
-90.22
-90.57
-82.77
-66.89
-44.62
-18.90
6.98
30.13
48.67
61.84
69.80
73.15
72.59
68.80
62.46
54.39
45.54
36.93
29.42
23.54
19.39
16.76
15.21
14.26
13.48
12.49
10.99
8.80
5.86
2.26
-1.84
-6.37
-11.38
-17.11
-24.01
-32.53
-42.93
-54.98
-67.71
-79.22
-87.07
-88.78
-82.66
-68.43
-47.44
-22.33
3.63
27.44
46.88
60.78
68.99
72.06
70.99
66.90
60.89
53.83
46.40
39.06
32.18
26.11
21.18
17.63
15.49
14.59
14.49
14.70
14.69
14.04
12.43
9.69
5.76
0.74
-5.16
-11.64
-18.52
-25.82
-33.91
-43.32
-54.36
-66.64
-78.72
-88.17
-92.16
-88.41
-76.08
-56.19
-31.39
-5.10
19.44
39.98
55.46
65.81
71.44
72.95
70.97
66.29
59.85
52.69
45.78
39.75
34.83
31.00
28.12
26.15
25.10
24.96
25.45
26.02
25.90
24.38
21.07
16.04
9.73
2.80
-4.17
-10.84
-17.18
-23.44
-30.14
-37.94
-47.38
-58.62
-70.98
-82.78
-91.55
-94.59
-89.89
-76.86
-56.73
-32.12
-6.29
17.80
38.08
53.60
64.18
70.14
71.92
70.11
65.49
59.07
52.02
45.41
39.98
35.96
33.17
31.13
29.42
27.80
26.31
25.15
24.47
24.17
23.85
22.84
20.45
16.27
10.28
2.93
-5.06
-12.97
-20.31
-26.97
-33.26
-39.80
-47.37
-56.56
-67.40
-79.07
-89.74
-96.93
-98.13
-91.65
-77.26
-56.34
-31.58
-6.10
17.28
36.66
51.18
60.85
66.12
67.63
66.07
62.18
56.79
50.84
45.21
40.53
37.03
34.49
32.49
30.59
28.65
26.83
25.50
25.00
25.32
26.07
26.51
25.75
23.08
18.17
11.20
2.76
-6.25
-14.93
-22.64
-29.16
-34.78
-40.20
-46.36
-54.05
-63.61
-74.56
-85.50
-94.25
-98.30
-95.57
-85.05
-67.24
-44.07
-18.41
6.71
28.74
46.10
58.19
65.17
67.70
66.56
62.58
56.64
49.63
42.54
36.25
31.49
28.62
27.56
27.84
28.78
29.77
30.42
30.68
30.71
30.62
30.35
29.50
27.47
23.73
18.06
10.73
2.47
-5.86
-13.54
-20.24
-26.08
-31.54
-37.25
-43.86
-51.90
-61.57
-72.50
-83.55
-92.76
-97.70
-96.16
-86.91
-70.23
-47.96
-22.91
1.86
23.85
41.50
54.20
62.04
65.40
64.87
61.14
55.02
47.57
39.88
32.93
27.43
23.70
21.56
20.58
20.24
20.18
20.23
20.47
21.03
21.88
22.78
23.28
22.82
20.89
17.23
11.91
5.33
-1.91
-9.17
-15.94
-22.02
-27.58
-33.13
-39.36
-46.90
-55.96
-66.13
-76.15
-84.14
-87.98
-85.84
-76.89
-61.47
-41.15
-18.29
4.53
25.05
41.66
53.49
60.34
62.54
60.76
55.92
49.03
41.11
33.04
25.54
19.12
14.06
10.48
8.28
7.28
7.22
7.86
8.97
10.31
11.52
12.08
11.38
8.93
4.54
-1.52
-8.53
-15.61
-22.08
-27.75
-33.06
-38.84
-46.02
-55.06
-65.65
-76.56
-85.86
-91.30
-90.91
-83.52
-69.17
-49.13
-25.66
-1.53
20.65
38.92
52.18
60.26
63.61
63.04
59.50
53.87
47.00
39.66
32.46
25.87
20.13
15.31
11.43
8.58
6.84
6.26
6.64
7.52
8.20
7.92
6.15
2.70
-2.18
-8.03
-14.28
-20.51
-26.60
-32.73
-39.43
-47.40
-57.19
-68.77
-81.21
-92.54
-100.08
-101.24
-94.35
-79.36
-57.91
-32.86
-7.40
15.74
34.85
49.21
58.83
64.08
65.57
64.03
60.31
55.36
50.01
44.78
39.80
34.96
30.10
25.27
20.82
17.24
14.87
13.68
13.22
12.83
11.82
9.78
6.57
2.28
-2.82
-8.44
-14.36
-20.43
-26.70
-33.51
-41.39
-50.86
-61.95
-73.75
-84.32
-91.06
-91.44
-83.91
-68.58
-47.17
-22.60
1.93
23.78
41.35
54.09
62.19
66.20
66.75
64.47
60.01
54.09
47.45
40.70
34.29
28.41
23.17
18.67
15.11
12.75
11.73
11.87
12.62
13.18
12.77
10.99
7.80
3.61
-1.12
-6.00
-10.96
-16.21
-22.13
-29.21
-37.82
-48.11
-59.62
-71.15
-80.65
-85.61
-83.81
-74.09
-57.02
-34.77
-10.58
12.34
31.56
45.92
55.34
60.32
61.50
59.41
54.60
47.76
39.82
31.76
24.48
18.52
14.08
11.06
9.27
8.52
8.61
9.28
10.18
10.81
10.67
9.37
6.73
2.83
-2.04
-7.52
-13.44
-19.89
-27.29
-36.10
-46.31
-57.16
-66.93
-73.34
-74.21
-68.22
-55.38
-37.13
-15.86
5.80
25.56
41.89
54.03
61.85
65.53
65.43
62.02
55.86
47.73
38.56
29.37
21.08
14.32
9.31
5.90
3.68
2.18
0.99
-0.17
-1.57
-3.39
-5.86
-9.11
-13.15
-17.92
-23.41
-29.77
-37.46
-46.98
-58.47
-71.22
-83.39
-92.34
-95.31
-90.39
-77.22
-57.21
-33.11
-8.11
14.97
34.21
48.74
58.55
64.04
65.81
64.49
60.72
55.18
48.64
41.87
35.60
30.32
26.17
22.97
20.31
17.76
15.05
12.09
9.06
6.14
3.41
0.77
-2.07
-5.53
-10.06
-16.12
-24.15
-34.42
-46.84
-60.61
-73.98
-84.47
-89.39
-86.64
-75.46
-56.80
-33.09
-7.55
16.74
37.49
53.56
64.76
71.51
74.42
74.07
71.00
65.83
59.29
52.25
45.48
39.60
34.90
31.37
28.75
26.68
24.77
22.69
20.18
17.14
13.58
9.63
5.43
0.99
-3.81
-9.28
-15.76
-23.61
-33.06
-44.09
-56.16
-68.02
-77.68
-82.70
-80.88
-71.05
-53.60
-30.61
-5.23
19.19
40.03
55.87
66.50
72.47
74.58
73.55
69.92
64.26
57.22
49.63
42.38
36.18
31.40
28.02
25.72
24.09
22.70
21.29
19.68
17.68
15.10
11.71
7.39
2.16
-3.81
-10.34
-17.36
-25.10
-33.96
-44.24
-55.72
-67.25
-76.88
-82.16
-80.98
-72.27
-56.48
-35.51
-12.12
10.78
30.87
46.75
57.97
64.74
67.61
67.23
64.23
59.25
52.93
45.98
39.05
32.75
27.47
23.35
20.35
18.26
16.78
15.54
14.16
12.24
9.48
5.70
0.93
-4.60
-10.59
-16.82
-23.33
-30.47
-38.77
-48.72
-60.33
-72.79
-84.45
-92.98
-96.01
-91.78
-79.80
-61.10
-37.93
-13.24
10.18
30.22
45.81
56.78
63.50
66.53
66.45
63.80
59.20
53.35
46.98
40.67
34.82
29.58
25.04
21.34
18.71
17.34
17.19
17.79
18.34
17.92
15.84
11.81
6.04
-0.85
-8.16
-15.25
-21.82
-27.94
-34.13
-41.14
-49.63
-59.74
-70.66
-80.52
-86.67
-86.62
-78.86
-63.59
-42.64
-18.93
4.51
25.35
42.26
54.83
63.13
67.38
67.90
65.18
60.03
53.47
46.56
40.02
34.25
29.30
25.13
21.77
19.39
18.13
18.05
18.89
20.13
21.05
20.87
19.01
15.17
9.48
2.47
-5.11
-12.49
-19.21
-25.28
-31.23
-37.90
-46.12
-56.20
-67.55
-78.55
-86.81
-89.79
-85.58
-73.60
-54.86
-31.75
-7.37
15.33
34.15
47.98
56.70
60.82
61.19
58.74
54.32
48.72
42.57
36.42
30.60
25.35
20.77
16.91
13.88
11.78
10.66
10.43
10.79
11.18
10.85
9.12
5.58
0.28
-6.30
-13.39
-20.23
-26.41
-32.01
-37.63
-44.15
-52.38
-62.52
-73.85
-84.61
-92.25
-94.22
-88.71
-75.39
-55.58
-31.88
-7.37
15.21
33.98
48.08
57.44
62.38
63.45
61.35
56.90
51.03
44.67
38.57
33.14
28.49
24.54
21.19
18.42
16.35
15.11
14.65
14.69
14.64
13.82
11.59
7.66
2.13
-4.48
-11.40
-17.95
-23.75
-28.91
-34.05
-40.13
-48.06
-58.25
-70.13
-82.00
-91.24
-95.04
-91.27
-79.29
-60.21
-36.54
-11.49
11.95
31.63
46.42
56.05
60.82
61.36
58.49
53.28
46.86
40.27
34.29
29.22
25.01
21.42
18.26
15.57
13.55
12.39
12.03
12.08
11.89
10.81
8.47
4.86
0.33
-4.64
-9.65
-14.54
-19.35
-24.34
-29.96
-36.74
-45.19
-55.46
-66.95
-78.08
-86.40
-89.22
-84.48
-71.61
-51.81
-27.81
-3.02
19.48
37.60
50.45
58.14
61.30
60.74
57.27
51.72
44.99
37.97
31.40
25.76
21.23
17.71
14.96
12.82
11.22
10.12
9.37
8.64
7.46
5.38
2.20
-2.01
-6.85
-11.89
-16.82
-21.60
-26.54
-32.18
-39.16
-47.91
-58.40
-69.79
-80.36
-87.65
-89.16
-83.10
-69.12
-48.62
-24.37
0.27
22.27
39.67
51.74
58.72
61.37
60.56
57.02
51.43
44.46
36.84
29.35
22.63
17.10
12.88
9.86
7.77
6.29
5.09
3.90
2.53
0.81
-1.41
-4.21
-7.65
-11.78
-16.54
-21.96
-28.09
-35.16
-43.51
-53.28
-64.16
-74.97
-83.70
-87.96
-85.69
-75.89
-59.10
-37.27
-13.19
10.24
30.66
46.59
57.43
63.32
64.86
62.88
58.31
52.06
44.92
37.57
30.58
24.42
19.44
15.81
13.48
12.21
11.57
11.08
10.32
8.94
6.74
3.65
-0.27
-4.84
-9.84
-15.11
-20.66
-26.85
-34.25
-43.48
-54.77
-67.56
-80.27
-90.44
-95.33
-92.77
-81.88
-63.47
-39.87
-14.23
10.28
31.20
47.16
57.81
63.49
64.90
62.83
58.11
51.58
44.11
36.48
29.37
23.27
18.42
14.87
12.52
11.14
10.45
10.04
9.47
8.37
6.49
3.75
0.26
-3.82
-8.39
-13.48
-19.43
-26.73
-35.90
-47.10
-59.80
-72.50
-82.90
-88.40
-86.89
-77.41
-60.56
-38.33
-13.58
10.72
32.14
49.06
60.77
67.30
69.18
67.29
62.64
56.23
48.97
41.58
34.67
28.67
23.90
20.47
18.33
17.20
16.64
16.12
15.18
13.47
10.85
7.35
3.08
-1.84
-7.37
-13.51
-20.34
-28.08
-37.01
-47.46
-59.48
-72.45
-84.84
-94.27
-98.00
-93.81
-80.89
-60.25
-34.54
-7.29
18.14
39.32
55.09
65.42
70.98
72.69
71.44
67.97
62.90
56.83
50.28
43.78
37.78
32.68
28.73
26.08
24.62
24.06
23.87
23.37
21.91
19.04
14.67
9.05
2.66
-4.01
-10.70
-17.47
-24.65
-32.81
-42.49
-53.93
-66.71
-79.52
-90.15
-95.89
-94.29
-84.03
-65.49
-40.81
-13.25
13.73
37.33
55.89
68.89
76.60
79.74
79.11
75.58
70.04
63.36
56.33
49.59
43.59
38.58
34.64
31.77
29.90
28.86
28.43
28.26
27.88
26.76
24.40
20.50
15.07
8.52
1.42
-5.64
-12.36
-18.86
-25.66
-33.50
-42.96
-54.13
-66.33
-77.95
-86.69
-90.08
-86.20
-74.31
-55.23
-31.22
-5.42
19.00
39.55
54.85
64.62
69.39
70.00
67.33
62.12
55.06
46.89
38.47
30.73
24.55
20.53
18.89
19.30
21.03
23.09
24.53
24.69
23.27
20.37
16.32
11.52
6.30
0.80
-5.03
-11.40
-18.67
-27.22
-37.35
-48.93
-61.14
-72.24
-79.80
-81.32
-75.07
-60.81
-40.02
-15.57
9.14
31.18
48.68
61.03
68.48
71.68
71.33
68.02
62.36
55.08
47.04
39.12
32.08
26.45
22.45
20.04
18.97
18.78
18.91
18.72
17.63
15.22
11.37
6.19
-0.01
-6.87
-14.09
-21.57
-29.44
-38.09
-48.05
-59.63
-72.52
-85.42
-96.10
-101.77
-100.01
-89.63
-71.17
-46.88
-20.01
6.11
28.94
47.10
60.33
69.08
74.08
76.03
75.53
73.12
69.34
64.69
59.63
54.47
49.41
44.61
40.25
36.54
33.64
31.48
29.77
27.93
25.31
21.42
16.06
9.39
1.86
-6.04
-13.92
-21.64
-29.41
-37.74
-47.26
-58.33
-70.56
-82.56
-92.06
-96.45
-93.64
-82.87
-65.01
-42.35
-17.85
5.72
26.42
43.31
56.25
65.39
70.95
73.06
71.98
68.33
63.07
57.33
52.13
47.96
44.82
42.29
39.93
37.56
35.34
33.59
32.58
32.23
32.06
31.32
29.23
25.26
19.30
11.79
3.55
-4.45
-11.44
-17.18
-22.02
-26.81
-32.61
-40.29
-50.12
-61.52
-73.06
-82.61
-87.86
-86.92
-78.90
-64.21
-44.52
-22.26
-0.00
20.13
36.81
49.43
57.89
62.38
63.19
60.81
55.98
49.71
43.21
37.56
33.45
31.01
29.88
29.44
29.14
28.72
28.20
27.78
27.55
27.30
26.54
24.63
21.09
15.82
9.16
1.81
-5.49
-12.20
-18.18
-23.72
-29.52
-36.36
-44.90
-55.28
-66.94
-78.44
-87.68
-92.34
-90.54
-81.55
-65.99
-45.79
-23.57
-1.93
17.11
32.38
43.53
50.71
54.39
55.12
53.48
50.16
45.88
41.32
37.04
33.32
30.21
27.52
25.06
22.69
20.49
18.74
17.68
17.38
17.55
17.51
16.43
13.63
8.79
2.18
-5.49
-13.35
-20.69
-27.18
-33.07
-38.92
-45.56
-53.64
-63.45
-74.56
-85.73
-94.95
-99.88
-98.50
-89.78
-74.16
-53.41
-30.23
-7.43
12.75
28.96
40.77
48.34
52.16
52.88
51.22
48.02
44.13
40.30
37.02
34.42
32.28
30.20
27.80
25.03
22.14
19.69
18.20
17.87
18.43
19.09
18.89
17.02
13.11
7.37
0.42
-6.92
-13.99
-20.43
-26.24
-31.84
-37.77
-44.67
-52.99
-62.73
-73.21
-82.97
-89.98
-92.10
-87.78
-76.57
-59.47
-38.59
-16.72
3.56
20.34
32.77
40.87
45.19
46.52
45.57
42.97
39.29
35.09
30.94
27.26
24.23
21.77
19.63
17.62
15.81
14.52
14.15
14.81
16.23
17.61
18.02
16.71
13.44
8.56
2.78
-3.07
-8.46
-13.23
-17.68
-22.38
-27.99
-35.00
-43.45
-52.65
-61.16
-66.99
-68.11
-63.15
-51.93
-35.66
-16.61
2.59
19.65
33.22
42.84
48.74
51.35
51.13
48.45
43.79
37.82
31.37
25.17
19.76
15.32
11.80
9.03
6.96
5.57
4.86
4.64
4.56
4.14
2.86
0.40
-3.23
-7.79
-12.86
-18.11
-23.42
-29.06
-35.56
-43.50
-53.08
-63.69
-73.80
-81.20
-83.63
-79.50
-68.51
-51.79
-31.56
-10.53
8.85
24.81
36.51
43.86
47.36
47.73
45.82
42.34
37.86
32.73
27.19
21.51
16.01
11.13
7.21
4.48
2.85
2.02
1.55
1.03
0.14
-1.25
-3.21
-5.73
-8.86
-12.64
-17.19
-22.65
-29.29
-37.38
-47.11
-58.19
-69.68
-79.78
-86.20
-86.77
-80.14
-66.38
-47.08
-24.90
-2.79
16.74
32.15
42.93
49.37
52.16
52.15
50.09
46.65
42.39
37.74
32.97
28.22
23.55
19.07
15.01
11.66
9.30
7.98
7.44
7.15
6.38
4.61
1.59
-2.53
-7.39
-12.59
-17.90
-23.38
-29.38
-36.40
-44.83
-54.60
-64.86
-73.92
-79.49
-79.36
-72.11
-57.85
-38.19
-15.90
5.98
24.94
39.55
49.48
55.14
57.25
56.48
53.35
48.34
42.02
35.08
28.29
22.33
17.65
14.33
12.12
10.64
9.50
8.42
7.30
6.08
4.68
2.98
0.80
-1.91
-5.20
-9.12
-13.86
-19.80
-27.39
-36.81
-47.56
-58.22
-66.67
-70.56
-68.13
-58.79
-43.45
-24.17
-3.65
15.65
31.95
44.39
52.80
57.41
58.57
56.62
52.01
45.36
37.57
29.61
22.38
16.48
12.10
9.07
6.94
5.17
3.24
0.85
-2.11
-5.51
-9.05
-12.48
-15.70
-18.87
-22.46
-27.13
-33.60
-42.32
-53.15
-65.14
-76.37
-84.36
-86.63
-81.53
-68.82
-49.83
-27.07
-3.52
18.17
36.17
49.60
58.33
62.71
63.30
60.73
55.70
49.01
41.59
34.30
27.88
22.76
19.01
16.34
14.33
12.53
10.61
8.41
5.88
3.04
-0.11
-3.52
-7.20
-11.24
-15.89
-21.53
-28.66
-37.66
-48.50
-60.43
-71.84
-80.51
-84.01
-80.50
-69.37
-51.49
-29.15
-5.31
17.21
36.33
51.06
61.28
67.35
69.76
68.95
65.38
59.67
52.61
45.07
37.86
31.59
26.57
22.85
20.31
18.66
17.52
16.47
15.06
12.97
10.04
6.29
1.90
-2.86
-7.82
-13.05
-18.86
-25.87
-34.69
-45.51
-57.77
-69.86
-79.39
-83.76
-80.99
-70.38
-52.77
-30.34
-5.98
17.43
37.61
53.15
63.51
68.92
70.01
67.66
62.80
56.28
48.83
41.09
33.65
27.00
21.59
17.64
15.14
13.80
13.16
12.65
11.79
10.25
7.95
4.93
1.34
-2.74
-7.30
-12.47
-18.51
-25.77
-34.54
-44.83
-56.04
-66.76
-74.86
-77.98
-74.23
-62.97
-45.14
-23.08
0.19
21.80
39.78
53.23
62.15
67.00
68.30
66.54
62.18
55.82
48.23
40.28
32.82
26.44
21.44
17.80
15.29
13.55
12.24
11.08
9.87
8.48
6.81
4.71
1.97
-1.68
-6.50
-12.71
-20.55
-30.13
-41.32
-53.53
-65.41
-74.95
-79.78
-77.93
-68.51
-52.16
-30.97
-7.88
14.17
32.95
47.35
57.20
62.95
65.20
64.48
61.20
55.79
48.78
40.88
32.93
25.72
19.81
15.35
12.14
9.70
7.48
5.16
2.67
0.14
-2.23
-4.43
-6.71
-9.51
-13.42
-18.92
-26.37
-35.89
-47.23
-59.60
-71.52
-80.85
-85.19
-82.57
-72.14
-54.59
-32.12
-7.81
15.25
34.67
49.24
58.83
64.00
65.55
64.22
60.58
55.14
48.56
41.56
34.95
29.30
24.82
21.31
18.32
15.37
12.19
8.84
5.57
2.73
0.45
-1.38
-3.20
-5.60
-9.20
-14.55
-22.03
-31.85
-43.76
-56.89
-69.55
-79.36
-83.78
-80.87
-70.03
-52.31
-30.19
-6.79
15.01
33.24
47.02
56.32
61.55
63.19
61.73
57.66
51.64
44.50
37.17
30.48
25.01
20.93
18.04
15.89
13.97
11.90
9.54
7.01
4.48
2.07
-0.24
-2.68
-5.54
-9.17
-13.84
-19.94
-27.79
-37.55
-48.88
-60.59
-70.66
-76.51
-75.85
-67.46
-51.79
-30.88
-7.80
14.37
33.25
47.62
57.25
62.52
63.97
62.13
57.55
50.89
43.01
34.89
27.39
21.17
16.51
13.30
11.18
9.63
8.14
6.37
4.16
1.52
-1.41
-4.54
-7.90
-11.61
-15.92
-21.12
-27.55
-35.57
-45.36
-56.58
-68.13
-77.96
-83.56
-82.65
-74.04
-58.18
-37.14
-13.94
8.38
27.54
42.40
52.80
59.11
61.85
61.39
58.06
52.32
44.90
36.77
29.03
22.62
18.04
15.30
13.92
13.21
12.44
11.11
9.01
6.16
2.77
-0.94
-4.85
-8.97
-13.50
-18.83
-25.38
-33.54
-43.40
-54.50
-65.63
-74.86
-79.94
-78.89
-70.70
-55.80
-35.99
-13.89
7.73
26.75
41.88
52.76
59.58
62.75
62.76
60.09
55.28
48.98
41.89
34.69
28.00
22.28
17.83
14.73
12.81
11.68
10.84
9.81
8.27
6.06
3.19
-0.29
-4.38
-9.19
-14.92
-21.82
-30.15
-40.01
-51.16
-62.78
-73.32
-80.71
-82.75
-77.90
-65.83
-47.74
-26.03
-3.65
16.72
33.27
45.21
52.63
56.06
56.16
53.52
48.72
42.37
35.16
27.82
21.02
15.31
10.88
7.71
5.52
3.89
2.44
0.85
-0.98
-3.08
-5.41
-8.00
-10.94
-14.43
-18.70
-24.03
-30.74
-39.10
-49.23
-60.65
-72.16
-81.69
-86.83
-85.43
-76.45
-60.54
-39.79
-17.25
4.09
22.09
35.70
44.88
50.04
51.69
50.20
45.95
39.49
31.71
23.75
16.76
11.54
8.31
6.73
6.00
5.36
4.25
2.60
0.61
-1.33
-3.00
-4.48
-6.14
-8.51
-12.14
-17.55
-25.08
-34.85
-46.53
-59.07
-70.62
-78.83
-81.38
-76.79
-65.01
-47.43
-26.55
-5.07
14.72
31.33
44.07
52.72
57.24
57.69
54.36
47.87
39.27
29.91
21.05
13.65
8.11
4.33
1.86
0.13
-1.33
-2.87
-4.60
-6.55
-8.66
-10.90
-13.37
-16.41
-20.63
-26.85
-35.74
-47.35
-60.71
-73.74
-83.62
-87.49
-83.34
-70.46
-49.65
-22.97
6.60
35.61
60.66
79.01
89.15
91.13
86.45
77.52
66.77
56.04
46.30
37.86
30.75
24.98
20.53
17.26
14.78
12.57
10.30
7.86
5.42
3.11
0.79
-2.03
-6.23
-12.79
-22.49
-35.38
-50.48
-65.56
-77.53
-83.20
-80.26
-68.24
-48.68
-24.63
0.36
23.38
42.74
57.96
69.30
77.09
81.43
82.21
79.53
73.91
66.38
58.24
50.59
44.02
38.53
33.65
28.80
23.66
18.29
13.11
8.66
5.20
2.56
0.10
-3.16
-8.29
-16.14
-27.11
-40.86
-56.15
-70.84
-82.08
-87.04
-83.65
-71.37
-51.52
-26.92
-1.04
23.02
43.24
58.89
70.14
77.55
81.57
82.42
80.26
75.49
68.81
61.21
53.69
47.02
41.55
37.19
33.61
30.33
26.94
23.19
19.04
14.59
9.96
5.24
0.35
-4.91
-10.91
-18.12
-27.03
-38.02
-51.08
-65.50
-79.66
-91.03
-96.76
-94.51
-83.27
-63.86
-38.72
-11.25
15.19
38.07
56.06
68.82
76.72
80.45
80.76
78.50
74.54
69.69
64.57
59.51
54.56
49.66
44.80
40.11
35.92
32.52
29.92
27.85
25.73
22.88
18.81
13.38
6.81
-0.41
-7.70
-14.66
-21.19
-27.67
-34.86
-43.72
-54.92
-68.41
-82.90
-95.92
-104.32
-105.24
-97.10
-80.24
-56.80
-30.01
-3.24
20.91
40.91
56.19
66.75
72.83
74.81
73.33
69.36
64.11
58.74
54.06
50.25
46.99
43.76
40.18
36.33
32.68
29.88
28.37
28.11
28.49
28.55
27.29
24.05
18.72
11.71
3.81
-4.14
-11.52
-18.12
-24.22
-30.47
-37.79
-46.98
-58.38
-71.42
-84.40
-94.72
-99.51
-96.58
-85.15
-66.30
-42.51
-17.00
7.26
28.10
44.37
55.72
62.31
64.59
63.25
59.19
53.53
47.38
41.58
36.60
32.47
28.99
25.88
23.06
20.69
19.05
18.40
18.65
19.40
19.92
19.41
17.31
13.47
8.15
1.93
-4.57
-10.88
-16.82
-22.58
-28.62
-35.65
-44.30
-54.76
-66.37
-77.43
-85.39
-87.61
-82.31
-69.27
-50.04
-27.39
-4.43
16.28
33.18
45.71
53.90
58.02
58.47
55.82
50.93
44.92
38.83
33.43
28.92
25.11
21.62
18.24
15.04
12.34
10.46
9.40
8.79
7.93
6.10
2.89
-1.69
-7.20
-13.05
-18.77
-24.25
-29.75
-35.84
-43.24
-52.48
-63.62
-75.95
-87.80
-96.66
-99.87
-95.38
-82.60
-62.75
-38.57
-13.50
9.39
28.06
41.76
50.74
55.70
57.37
56.31
53.02
48.10
42.24
36.16
30.46
25.45
21.19
17.61
14.64
12.29
10.56
9.34
8.33
7.13
5.31
2.66
-0.83
-4.93
-9.39
-14.08
-19.14
-25.00
-32.24
-41.32
-52.21
-64.00
-74.87
-82.36
-83.96
-78.07
-64.57
-45.00
-22.12
0.85
21.19
37.20
48.28
54.77
57.45
57.19
54.75
50.71
45.48
39.46
33.03
26.64
20.77
15.85
12.03
9.28
7.32
5.79
4.37
2.85
1.10
-0.97
-3.46
-6.47
-10.07
-14.29
-19.22
-25.01
-31.91
-40.20
-49.82
-60.15
-69.77
-76.65
-78.65
-74.23
-63.02
-46.07
-25.59
-4.31
15.29
31.46
43.38
50.97
54.55
54.58
51.56
46.13
39.09
31.36
23.88
17.35
12.18
8.39
5.70
3.71
2.06
0.44
-1.26
-3.05
-4.88
-6.72
-8.66
-10.90
-13.79
-17.72
-23.08
-30.16
-38.98
-49.14
-59.62
-68.77
-74.55
-75.04
-69.10
-56.76
-39.40
-19.33
0.88
19.04
33.76
44.42
51.02
53.77
53.02
49.16
42.82
34.85
26.29
18.18
11.30
6.00
2.17
-0.66
-3.05
-5.45
-7.98
-10.50
-12.76
-14.59
-16.13
-17.77
-20.10
-23.76
-29.29
-37.04
-46.96
-58.47
-70.20
-80.09
-85.77
-85.13
-77.10
-62.07
-41.84
-19.11
3.34
23.30
39.52
51.52
59.33
63.15
63.16
59.74
53.52
45.52
37.00
29.21
22.98
18.51
15.35
12.67
9.67
5.95
1.67
-2.70
-6.59
-9.79
-12.45
-15.07
-18.26
-22.56
-28.38
-35.99
-45.51
-56.62
-68.29
-78.74
-85.59
-86.56
-80.22
-66.56
-47.12
-24.49
-1.53
19.38
36.75
50.04
59.27
64.66
66.40
64.69
59.93
52.87
44.58
36.18
28.66
22.48
17.66
13.77
10.36
7.10
3.95
1.07
-1.37
-3.29
-4.90
-6.61
-8.94
-12.49
-17.81
-25.32
-35.22
-47.19
-60.26
-72.65
-82.05
-86.07
-82.97
-72.29
-55.04
-33.45
-10.32
11.71
30.73
45.71
56.37
62.88
65.54
64.71
60.83
54.55
46.72
38.34
30.36
23.54
18.21
14.27
11.34
8.87
6.38
3.66
0.72
-2.18
-4.80
-7.07
-9.26
-11.89
-15.70
-21.39
-29.44
-39.88
-52.11
-64.74
-75.64
-82.35
-82.61
-75.07
-59.80
-38.41
-13.66
11.27
33.62
51.54
64.32
72.09
75.36
74.75
70.81
64.13
55.52
46.11
37.17
29.76
24.35
20.70
18.00
15.33
12.09
8.23
4.21
0.61
-2.23
-4.38
-6.42
-9.15
-13.36
-19.71
-28.58
-39.94
-53.18
-66.86
-78.74
-86.13
-86.65
-78.98
-63.45
-42.00
-17.53
6.91
28.97
47.27
61.26
70.87
76.13
77.04
73.84
67.17
58.21
48.45
39.41
32.13
26.94
23.45
20.86
18.33
15.37
11.98
8.46
5.14
2.16
-0.74
-4.06
-8.36
-14.18
-21.87
-31.67
-43.56
-57.03
-70.76
-82.58
-89.75
-89.72
-81.06
-64.08
-40.86
-14.64
11.16
33.93
52.23
65.70
74.58
79.25
80.02
77.23
71.50
63.80
55.36
47.36
40.58
35.28
31.22
27.95
24.99
22.00
18.89
15.68
12.41
9.10
5.67
2.01
-2.14
-7.08
-13.27
-21.17
-31.16
-43.21
-56.52
-69.38
-79.30
-83.63
-80.35
-68.89
-50.32
-27.15
-2.46
20.93
41.10
57.07
68.58
75.73
78.69
77.71
73.31
66.32
57.80
48.87
40.50
33.32
27.59
23.23
19.98
17.41
15.12
12.77
10.14
7.23
4.12
0.89
-2.55
-6.43
-11.25
-17.51
-25.62
-35.64
-47.12
-58.96
-69.39
-76.23
-77.39
-71.44
-58.16
-38.77
-15.70
8.09
29.85
47.70
60.74
68.94
72.72
72.60
69.12
62.85
54.58
45.35
36.34
28.58
22.72
18.84
16.51
15.00
13.63
12.01
10.06
8.04
6.16
4.46
2.69
0.32
-3.24
-8.48
-15.70
-24.99
-36.05
-48.10
-59.73
-68.92
-73.43
-71.42
-62.09
-46.12
-25.53
-3.10
18.39
36.89
51.26
61.18
66.80
68.41
66.33
61.02
53.28
44.20
35.07
27.02
20.73
16.24
13.07
10.47
7.78
4.68
1.27
-2.09
-5.06
-7.50
-9.62
-11.92
-15.08
-19.76
-26.48
-35.50
-46.60
-58.87
-70.61
-79.49
-83.04
-79.42
-68.13
-50.26
-28.27
-5.18
16.22
34.07
47.59
56.77
62.02
63.79
62.49
58.57
52.67
45.66
38.48
31.94
26.54
22.30
18.89
15.79
12.56
8.98
5.19
1.48
-1.83
-4.59
-6.96
-9.38
-12.40
-16.60
-22.45
-30.21
-39.91
-51.09
-62.64
-72.76
-79.18
-79.78
-73.25
-59.69
-40.70
-18.95
2.66
21.77
37.06
48.17
55.44
59.41
60.50
59.07
55.46
50.15
43.81
37.13
30.77
25.17
20.59
17.07
14.54
12.72
11.28
9.85
8.06
5.63
2.48
-1.34
-5.67
-10.33
-15.32
-20.73
-26.81
-33.91
-42.29
-51.83
-61.83
-70.84
-76.92
-78.06
-72.87
-61.09
-43.79
-23.14
-1.84
17.61
33.44
44.83
51.71
54.52
53.95
50.71
45.53
39.16
32.34
25.79
20.12
15.69
12.60
10.65
9.44
8.51
7.50
6.25
4.74
3.04
1.14
-1.12
-3.96
-7.57
-12.05
-17.36
-23.49
-30.52
-38.57
-47.53
-56.67
-64.52
-68.98
-68.10
-60.75
-47.19
-29.07
-8.99
10.36
26.88
39.41
47.74
52.20
53.39
51.89
48.30
43.21
37.27
31.13
25.28
20.06
15.59
11.91
8.97
6.73
5.08
3.81
2.55
0.96
-1.25
-4.12
-7.51
-11.14
-14.83
-18.51
-22.34
-26.69
-32.06
-38.92
-47.49
-57.38
-67.39
-75.58
-79.64
-77.67
-68.81
-53.71
-34.30
-13.27
6.77
23.89
37.07
46.08
51.19
52.89
51.71
48.23
43.08
36.93
30.43
24.21
18.73
14.31
11.07
8.91
7.58
6.76
6.09
5.25
4.04
2.33
0.02
-2.95
-6.59
-10.79
-15.38
-20.16
-25.16
-30.61
-37.01
-44.76
-53.74
-62.97
-70.56
-74.17
-71.77
-62.46
-46.90
-27.19
-6.22
13.26
29.30
41.04
48.53
52.26
52.80
50.70
46.51
40.87
34.56
28.34
22.78
18.13
14.37
11.31
8.86
7.03
5.86
5.28
5.03
4.63
3.56
1.52
-1.53
-5.36
-9.57
-13.89
-18.30
-23.12
-28.90
-36.24
-45.33
-55.77
-66.25
-74.78
-79.09
-77.29
-68.62
-53.66
-34.36
-13.39
6.58
23.55
36.45
45.14
50.03
51.70
50.69
47.39
42.25
35.83
28.82
22.03
16.10
11.43
8.05
5.73
4.13
2.87
1.69
0.42
-1.04
-2.76
-4.79
-7.16
-9.87
-12.98
-16.53
-20.71
-25.87
-32.38
-40.47
-49.90
-59.66
-67.96
-72.61
-71.67
-64.13
-50.37
-32.04
-11.63
8.35
25.87
39.72
49.41
55.04
56.96
55.72
52.01
46.54
40.05
33.13
26.25
19.78
14.07
9.40
5.96
3.83
2.73
2.22
1.76
0.83
-0.90
-3.49
-6.83
-10.74
-15.01
-19.55
-24.39
-29.78
-36.12
-43.80
-52.93
-62.94
-72.36
-79.00
-80.53
-75.26
-62.89
-44.71
-23.25
-1.43
18.24
34.21
45.99
53.73
57.90
58.96
57.29
53.35
47.64
40.83
33.56
26.52
20.27
15.26
11.72
9.59
8.51
7.88
7.11
5.78
3.77
1.24
-1.61
-4.65
-7.96
-11.78
-16.41
-22.14
-29.23
-37.85
-47.91
-58.83
-69.25
-77.17
-80.28
-76.75
-65.88
-48.62
-27.25
-4.74
16.16
33.63
46.96
56.25
61.95
64.43
63.89
60.58
55.02
48.02
40.58
33.57
27.49
22.49
18.48
15.27
12.71
10.71
9.05
7.54
5.84
3.73
1.03
-2.25
-6.03
-10.24
-14.95
-20.39
-27.01
-35.21
-45.10
-56.07
-66.66
-74.69
-77.79
-74.19
-63.43
-46.55
-25.85
-4.11
16.12
33.12
46.02
54.69
59.35
60.41
58.35
53.78
47.42
40.08
32.53
25.39
19.16
14.14
10.44
8.01
6.52
5.51
4.49
3.07
1.04
-1.57
-4.63
-8.03
-11.81
-16.17
-21.42
-27.97
-36.16
-46.09
-57.32
-68.69
-78.24
-83.57
-82.52
-73.89
-57.98
-36.68
-12.88
10.33
30.47
46.16
57.06
63.51
66.14
65.53
62.21
56.68
49.65
41.92
34.46
28.10
23.35
20.30
18.60
17.57
16.48
14.80
12.30
9.13
5.53
1.81
-1.93
-5.78
-9.98
-14.84
-20.68
-27.85
-36.64
-47.12
-58.77
-70.31
-79.68
-84.45
-82.54
-72.98
-56.27
-34.42
-10.23
13.36
34.04
50.40
61.96
68.84
71.49
70.49
66.51
60.36
52.93
45.16
37.89
31.76
27.02
23.66
21.38
19.76
18.38
16.93
15.19
13.09
10.59
7.65
4.16
-0.00
-4.96
-10.80
-17.60
-25.54
-34.87
-45.74
-57.88
-70.19
-80.68
-86.81
-86.23
-77.70
-61.59
-39.96
-15.81
7.73
28.34
44.72
56.58
64.16
67.88
68.12
65.27
59.86
52.66
44.61
36.66
29.62
24.02
19.99
17.40
15.84
14.86
13.96
12.81
11.17
9.00
6.30
3.11
-0.57
-4.83
-9.81
-15.79
-23.10
-32.03
-42.60
-54.17
-65.40
-74.18
-78.15
-75.42
-65.27
-48.54
-27.44
-4.89
16.31
34.20
47.86
57.22
62.64
64.53
63.19
58.96
52.40
44.37
35.94
28.13
21.72
17.04
13.97
12.15
11.06
10.24
9.35
8.16
6.51
4.34
1.55
-1.96
-6.24
-11.50
-18.04
-26.25
-36.47
-48.60
-61.78
-74.21
-83.39
-86.77
-82.53
-70.29
-51.33
-28.25
-4.13
18.22
36.95
51.25
61.17
67.12
69.55
68.82
65.27
59.44
52.09
44.24
36.81
30.48
25.44
21.50
18.24
15.23
12.22
9.14
6.10
3.20
0.51
-2.11
-4.97
-8.52
-13.28
-19.75
-28.26
-38.85
-51.11
-63.95
-75.63
-83.91
-86.58
-82.06
-69.96
-51.32
-28.32
-3.76
19.67
39.94
55.85
67.05
73.77
76.59
76.26
73.56
69.20
63.78
57.75
51.47
45.27
39.49
34.44
30.37
27.35
25.17
23.42
21.55
19.03
15.52
10.92
5.39
-0.82
-7.39
-14.15
-21.09
-28.48
-36.85
-46.81
-58.67
-71.97
-85.30
-96.30
-102.20
-100.66
-90.53
-72.27
-47.89
-20.34
7.19
31.99
52.25
67.11
76.63
81.40
82.30
80.25
76.03
70.27
63.42
55.92
48.21
40.82
34.32
29.20
25.73
23.80
22.90
22.29
21.13
18.79
15.02
10.00
4.16
-1.97
-8.04
-14.03
-20.34
-27.75
-37.03
-48.63
-62.09
-75.81
-87.23
-93.29
-91.29
-79.70
-58.81
-30.90
0.10
29.56
53.32
68.85
75.77
75.63
70.97
64.22
56.90
49.50
41.97
34.38
27.23
21.36
17.44
15.52
15.00
14.95
14.55
13.46
11.82
10.01
8.44
7.19
6.04
4.51
2.03
-1.91
-7.63
-15.30
-24.84
-35.81
-47.32
-57.81
-65.28
-67.66
-63.50
-52.50
-35.79
-15.57
5.49
25.03
41.45
54.06
62.78
67.79
69.32
67.60
62.98
56.11
47.82
39.11
30.92
23.97
18.64
14.94
12.56
10.99
9.68
8.18
6.28
3.96
1.30
-1.64
-4.95
-8.92
-13.99
-20.71
-29.62
-41.00
-54.61
-69.31
-83.03
-92.99
-96.48
-91.71
-78.50
-58.46
-34.53
-10.02
12.21
30.35
43.71
52.44
57.01
57.96
55.76
50.93
44.13
36.21
28.15
20.86
14.98
10.62
7.47
4.84
2.09
-1.11
-4.73
-8.36
-11.59
-14.24
-16.51
-18.95
-22.23
-26.98
-33.63
-42.40
-53.20
-65.47
-78.02
-88.95
-95.86
-96.42
-89.18
-74.09
-52.78
-28.09
-3.27
18.96
36.93
50.20
59.08
64.16
65.91
64.63
60.66
54.59
47.41
40.25
34.09
29.41
26.14
23.75
21.68
19.57
17.37
15.29
13.53
12.14
10.85
9.19
6.60
2.58
-3.24
-11.14
-21.14
-32.84
-45.15
-56.29
-63.96
-65.96
-60.95
-48.94
-31.45
-10.98
9.73
28.42
43.72
55.09
62.46
65.90
65.48
61.49
54.58
45.86
36.75
28.56
22.11
17.52
14.28
11.60
8.78
5.55
1.99
-1.54
-4.75
-7.57
-10.26
-13.30
-17.17
-22.39
-29.34
-38.28
-49.14
-61.25
-73.13
-82.52
-86.98
-84.50
-74.43
-57.70
-36.65
-14.27
6.74
24.54
38.31
47.99
53.78
55.89
54.57
50.30
43.89
36.45
29.17
22.94
18.15
14.65
11.97
9.50
6.83
3.81
0.59
-2.54
-5.33
-7.71
-9.92
-12.40
-15.81
-20.82
-27.92
-37.28
-48.49
-60.45
-71.32
-78.83
-80.79
-75.76
-63.56
-45.47
-23.86
-1.55
18.98
36.05
48.97
57.72
62.61
63.99
62.20
57.70
51.21
43.66
36.07
29.30
23.85
19.78
16.81
14.49
12.31
9.90
7.05
3.78
0.24
-3.33
-6.81
-10.30
-14.09
-18.71
-24.70
-32.50
-42.21
-53.29
-64.47
-73.75
-78.80
-77.56
-69.05
-53.80
-33.86
-12.13
8.49
25.92
39.26
48.54
54.27
56.92
56.76
53.94
48.75
41.84
34.16
26.76
20.43
15.59
12.13
9.61
7.48
5.34
3.08
0.84
-1.08
-2.46
-3.37
-4.22
-5.66
-8.42
-13.09
-19.93
-28.85
-39.32
-50.26
-60.07
-66.81
-68.54
-63.92
-52.70
-36.03
-16.06
4.52
23.31
38.72
50.12
57.56
61.39
61.98
59.56
54.51
47.44
39.30
31.20
24.14
18.69
14.82
12.08
9.71
7.16
4.23
1.14
-1.70
-3.96
-5.63
-7.10
-8.98
-11.99
-16.75
-23.64
-32.76
-43.68
-55.30
-65.83
-73.01
-74.68
-69.48
-57.36
-39.71
-18.93
2.25
21.53
37.40
49.20
56.80
60.32
59.99
56.22
49.72
41.55
32.93
25.00
18.43
13.39
9.54
6.32
3.22
-0.02
-3.37
-6.59
-9.44
-11.75
-13.64
-15.47
-17.80
-21.29
-26.56
-33.97
-43.41
-54.06
-64.36
-72.24
-75.48
-72.46
-62.67
-46.94
-27.30
-6.34
13.50
30.51
43.83
53.32
59.14
61.47
60.48
56.44
49.88
41.70
33.06
25.10
18.61
13.87
10.58
8.09
5.72
3.04
0.06
-2.87
-5.36
-7.20
-8.59
-10.10
-12.51
-16.57
-22.83
-31.41
-41.92
-53.33
-63.93
-71.58
-74.17
-70.25
-59.57
-43.27
-23.53
-2.95
16.13
32.21
44.56
53.08
57.86
59.05
56.86
51.70
44.35
35.85
27.39
19.91
13.93
9.47
6.21
3.69
1.55
-0.34
-2.00
-3.39
-4.53
-5.63
-7.02
-9.08
-12.24
-16.91
-23.40
-31.79
-41.75
-52.29
-61.76
-68.07
-69.24
-64.03
-52.49
-35.92
-16.60
2.94
20.60
35.06
45.77
52.66
55.83
55.40
51.59
44.93
36.36
27.16
18.64
11.76
6.92
3.83
1.86
0.25
-1.47
-3.43
-5.42
-7.09
-8.23
-8.92
-9.66
-11.16
-14.21
-19.39
-26.82
-36.00
-45.75
-54.35
-59.88
-60.64
-55.65
-44.94
-29.63
-11.59
7.05
24.39
39.08
50.34
57.76
61.09
60.29
55.65
47.99
38.61
29.07
20.64
14.00
9.07
5.25
1.85
-1.57
-4.99
-8.07
-10.39
-11.81
-12.53
-13.15
-14.55
-17.60
-23.01
-31.10
-41.51
-53.08
-63.90
-71.52
-73.63
-68.74
-56.73
-39.04
-18.21
2.85
21.72
36.92
47.91
54.75
57.65
56.84
52.65
45.79
37.40
28.90
21.52
15.89
11.94
8.98
6.20
3.03
-0.59
-4.32
-7.65
-10.18
-11.87
-13.07
-14.49
-17.00
-21.47
-28.49
-38.05
-49.25
-60.33
-68.84
-72.38
-69.25
-59.09
-43.02
-23.25
-2.41
17.20
34.01
47.31
56.90
62.79
65.05
63.81
59.46
52.77
44.84
36.82
29.67
23.89
19.45
15.86
12.52
9.03
5.29
1.57
-1.73
-4.30
-6.25
-8.02
-10.38
-14.11
-19.92
-28.16
-38.65
-50.56
-62.25
-71.47
-75.80
-73.36
-63.53
-47.28
-26.88
-5.27
14.92
31.97
45.21
54.73
60.86
63.82
63.69
60.62
55.03
47.77
39.90
32.48
26.22
21.38
17.79
15.00
12.52
9.99
7.29
4.54
2.01
-0.13
-1.88
-3.55
-5.76
-9.24
-14.67
-22.40
-32.29
-43.51
-54.59
-63.58
-68.38
-67.34
-59.67
-45.81
-27.42
-6.84
13.40
31.28
45.50
55.58
61.53
63.70
62.56
58.62
52.57
45.26
37.60
30.48
24.53
19.98
16.66
14.07
11.68
9.10
6.29
3.49
1.06
-0.83
-2.27
-3.70
-5.71
-8.89
-13.69
-20.37
-28.91
-38.91
-49.43
-58.87
-65.24
-66.55
-61.55
-50.22
-33.84
-14.63
4.93
22.74
37.49
48.60
55.98
59.76
60.13
57.33
51.83
44.35
35.89
27.56
20.37
15.02
11.71
10.09
9.49
9.09
8.32
6.97
5.15
3.09
0.95
-1.35
-4.11
-7.70
-12.50
-18.79
-26.67
-36.00
-46.08
-55.58
-62.63
-65.22
-61.88
-52.25
-37.35
-19.21
-0.31
17.20
31.96
43.39
51.45
56.18
57.57
55.63
50.56
43.05
34.26
25.56
18.16
12.75
9.36
7.44
6.20
4.94
3.29
1.30
-0.79
-2.76
-4.61
-6.60
-9.14
-12.66
-17.47
-23.74
-31.59
-40.93
-51.27
-61.45
-69.63
-73.62
-71.50
-62.41
-47.01
-27.40
-6.40
13.22
29.60
41.94
50.29
55.13
56.96
56.15
53.03
48.14
42.15
35.90
30.11
25.18
21.21
17.98
15.21
12.63
10.10
7.63
5.30
3.15
1.11
-0.95
-3.27
-6.12
-9.77
-14.51
-20.60
-28.26
-37.47
-47.72
-57.79
-65.83
-69.67
-67.53
-58.68
-43.81
-24.87
-4.52
14.70
30.87
43.09
51.20
55.59
56.78
55.38
52.05
47.48
42.35
37.20
32.36
27.94
23.98
20.52
17.60
15.31
13.60
12.24
10.89
9.22
7.01
4.25
1.06
-2.42
-6.10
-10.04
-14.38
-19.31
-25.15
-32.24
-40.84
-50.71
-60.85
-69.40
-73.97
-72.39
-63.56
-47.98
-27.71
-5.80
14.71
31.56
43.66
51.04
54.37
54.53
52.25
48.17
42.78
36.62
30.30
24.39
19.31
15.25
12.19
9.91
8.13
6.62
5.19
3.76
2.24
0.59
-1.20
-3.18
-5.33
-7.69
-10.38
-13.66
-17.92
-23.63
-31.07
-40.04
-49.60
-58.03
-63.20
-63.18
-56.90
-44.57
-27.72
-8.71
9.97
26.28
38.99
47.66
52.39
53.57
51.73
47.48
41.59
34.88
28.14
22.01
16.82
12.70
9.56
7.24
5.57
4.33
3.26
2.05
0.43
-1.75
-4.45
-7.54
-10.80
-14.11
-17.46
-21.01
-25.09
-30.10
-36.40
-44.03
-52.43
-60.34
-65.83
-66.89
-62.11
-51.18
-35.23
-16.39
2.75
19.96
33.76
43.51
49.28
51.44
50.52
47.09
41.77
35.29
28.42
21.85
16.11
11.48
7.97
5.40
3.44
1.77
0.14
-1.58
-3.42
-5.37
-7.44
-9.70
-12.20
-15.02
-18.21
-21.91
-26.41
-32.08
-39.19
-47.53
-56.18
-63.47
-67.30
-65.86
-58.26
-44.93
-27.53
-8.46
9.81
25.44
37.36
45.32
49.54
50.48
48.61
44.41
38.48
31.55
24.43
17.87
12.39
8.19
5.22
3.21
1.90
1.01
0.30
-0.50
-1.62
-3.22
-5.31
-7.74
-10.32
-12.99
-15.97
-19.72
-24.82
-31.68
-40.25
-49.73
-58.66
-65.07
-67.01
-63.13
-53.14
-37.96
-19.51
-0.19
17.72
32.50
43.23
49.74
52.32
51.58
48.18
42.80
36.09
28.73
21.37
14.69
9.21
5.20
2.60
1.09
0.16
-0.63
-1.50
-2.46
-3.42
-4.29
-5.22
-6.48
-8.42
-11.30
-15.29
-20.44
-26.79
-34.32
-42.75
-51.33
-58.67
-62.91
-62.24
-55.56
-43.04
-26.14
-7.26
11.10
26.95
39.26
47.74
52.62
54.13
52.51
48.02
41.20
32.91
24.23
16.18
9.46
4.39
0.80
-1.70
-3.62
-5.36
-7.13
-8.93
-10.67
-12.23
-13.69
-15.28
-17.39
-20.43
-24.79
-30.80
-38.60
-48.04
-58.38
-68.15
-75.25
-77.48
-73.24
-62.17
-45.40
-25.26
-4.53
14.42
30.04
41.79
49.76
54.28
55.63
54.04
49.79
43.43
35.76
27.78
20.42
14.30
9.63
6.25
3.74
1.70
-0.18
-2.06
-3.99
-5.94
-7.97
-10.20
-12.84
-16.13
-20.40
-26.03
-33.37
-42.47
-52.87
-63.38
-72.08
-76.79
-75.63
-67.70
-53.39
-34.40
-13.19
7.77
26.49
41.83
53.38
61.14
65.24
65.84
63.17
57.66
50.13
41.68
33.46
26.49
21.26
17.74
15.37
13.51
11.54
9.20
6.57
3.96
1.71
-0.10
-1.72
-3.69
-6.64
-11.13
-17.55
-26.03
-36.38
-47.93
-59.32
-68.57
-73.38
-71.77
-62.82
-47.09
-26.58
-4.10
17.50
36.11
50.58
60.62
66.43
68.32
66.65
61.87
54.71
46.14
37.32
29.30
22.80
18.03
14.72
12.29
10.11
7.76
5.16
2.55
0.23
-1.62
-3.14
-4.75
-7.03
-10.52
-15.63
-22.68
-31.76
-42.63
-54.43
-65.54
-73.70
-76.55
-72.39
-60.81
-42.99
-21.34
1.23
22.17
39.75
53.12
62.08
66.67
67.00
63.35
56.35
47.13
37.17
28.00
20.72
15.71
12.63
10.69
9.06
7.20
5.05
2.83
0.85
-0.76
-2.12
-3.65
-5.87
-9.37
-14.67
-22.09
-31.67
-42.82
-54.30
-64.17
-70.16
-70.26
-63.38
-49.73
-30.92
-9.45
12.06
31.43
47.35
59.26
67.05
70.76
70.47
66.46
59.35
50.23
40.42
31.19
23.41
17.46
13.15
10.06
7.64
5.49
3.35
1.15
-1.06
-3.27
-5.54
-8.18
-11.69
-16.77
-24.11
-34.08
-46.32
-59.57
-71.66
-79.90
-81.85
-76.06
-62.63
-43.14
-20.22
3.32
25.19
43.93
58.90
69.91
76.83
79.55
78.02
72.56
64.03
53.80
43.48
34.43
27.46
22.58
19.11
16.04
12.48
8.10
3.21
-1.41
-5.04
-7.37
-8.88
-10.71
-14.39
-21.18
-31.81
-46.02
-62.51
-79.01
-92.50
-99.64
-97.27
-83.54
-58.77
-26.03
9.39
41.48
65.47
79.39
84.37
83.57
80.37
76.79
73.08
68.36
61.85
53.81
45.56
38.71
34.20
31.79
30.28
28.31
25.03
20.53
15.50
10.97
7.52
5.08
2.94
0.10
-4.34
-10.85
-19.46
-29.88
-41.61
-53.98
-65.89
-75.77
-81.59
-81.32
-73.62
-58.39
-37.10
-12.48
12.25
34.23
51.55
63.50
70.31
72.75
71.72
68.11
62.70
56.25
49.45
42.94
37.15
32.33
28.51
25.59
23.40
21.68
20.15
18.49
16.39
13.64
10.14
5.92
1.12
-4.05
-9.44
-15.00
-20.88
-27.52
-35.54
-45.45
-57.19
-69.77
-81.15
-88.63
-89.63
-82.56
-67.50
-46.21
-21.63
3.02
24.99
42.55
54.98
62.37
65.29
64.50
60.83
55.14
48.29
41.09
34.22
28.19
23.30
19.63
17.07
15.41
14.39
13.70
13.06
12.25
11.11
9.45
7.17
4.21
0.52
-3.91
-9.13
-15.32
-22.74
-31.57
-41.67
-52.19
-61.56
-67.67
-68.45
-62.53
-49.86
-31.74
-10.58
10.85
30.10
45.57
56.62
63.33
66.21
65.80
62.57
56.89
49.27
40.49
31.54
23.47
17.14
12.94
10.67
9.67
9.15
8.40
7.06
5.06
2.51
-0.49
-3.94
-7.91
-12.57
-18.02
-24.43
-31.97
-40.88
-51.22
-62.53
-73.54
-82.18
-86.06
-83.19
-72.85
-55.95
-34.82
-12.40
8.58
26.29
39.96
49.62
55.58
58.22
57.86
54.90
49.97
43.82
37.30
31.12
25.73
21.40
18.20
16.07
14.79
14.02
13.26
12.02
9.93
6.89
3.02
-1.31
-5.75
-10.11
-14.49
-19.35
-25.33
-33.08
-42.86
-54.21
-65.74
-75.30
-80.42
-79.08
-70.38
-54.98
-34.91
-12.96
8.08
26.11
39.98
49.41
54.67
56.26
54.70
50.52
44.35
36.93
29.06
21.50
14.89
9.61
5.82
3.44
2.19
1.64
1.34
0.94
0.22
-0.88
-2.35
-4.20
-6.58
-9.79
-14.25
-20.35
-28.33
-38.05
-48.79
-59.19
-67.37
-71.35
-69.60
-61.57
-48.01
-30.67
-11.86
6.25
22.11
34.84
44.12
49.84
51.94
50.54
46.01
39.17
31.15
23.08
15.87
9.92
5.14
1.17
-2.37
-5.68
-8.71
-11.23
-13.04
-14.15
-14.81
-15.55
-17.06
-19.99
-24.89
-32.16
-41.80
-53.24
-65.14
-75.42
-81.59
-81.47
-73.90
-59.25
-39.36
-16.96
5.17
24.89
40.97
52.98
60.87
64.76
64.85
61.54
55.62
48.22
40.62
33.80
28.32
24.04
20.46
16.88
12.95
8.70
4.58
1.13
-1.32
-2.84
-3.96
-5.49
-8.27
-13.01
-20.12
-29.55
-40.59
-51.75
-60.95
-65.98
-65.08
-57.63
-44.33
-27.04
-8.11
10.30
26.63
40.08
50.23
56.86
59.76
58.84
54.45
47.41
39.01
30.56
23.02
16.74
11.46
6.73
2.18
-2.13
-5.80
-8.39
-9.69
-9.96
-9.84
-10.18
-11.83
-15.49
-21.64
-30.43
-41.41
-53.28
-63.92
-70.76
-71.48
-64.88
-51.34
-32.74
-11.82
8.71
26.81
41.39
52.06
58.76
61.49
60.37
55.85
48.87
40.79
32.98
26.39
21.23
17.00
12.89
8.25
2.97
-2.49
-7.42
-11.16
-13.52
-14.85
-15.92
-17.64
-20.88
-26.31
-34.17
-44.10
-54.99
-64.95
-71.66
-72.95
-67.46
-55.18
-37.49
-16.71
4.60
24.24
40.70
53.23
61.54
65.58
65.58
61.95
55.50
47.33
38.67
30.59
23.73
18.20
13.71
9.71
5.79
1.79
-2.17
-5.77
-8.75
-11.07
-13.05
-15.31
-18.68
-23.97
-31.67
-41.67
-53.02
-63.92
-71.99
-74.91
-71.09
-60.22
-43.46
-23.03
-1.60
18.47
35.58
48.93
58.33
63.79
65.40
63.28
57.79
49.71
40.20
30.63
22.14
15.41
10.46
6.78
3.69
0.80
-1.88
-4.00
-5.21
-5.51
-5.46
-5.95
-7.98
-12.29
-19.20
-28.50
-39.52
-50.99
-61.15
-67.85
-69.05
-63.38
-50.78
-32.56
-11.15
10.63
30.38
46.49
58.23
65.43
68.15
66.60
61.24
52.94
43.02
32.99
24.18
17.29
12.24
8.38
4.84
1.00
-3.21
-7.48
-11.26
-14.18
-16.18
-17.61
-19.14
-21.54
-25.68
-32.21
-41.39
-52.71
-64.66
-74.81
-80.40
-79.09
-69.87
-53.37
-31.75
-8.03
14.91
34.85
50.57
61.64
68.09
70.10
68.00
62.33
53.99
44.27
34.51
25.90
19.05
13.91
9.92
6.34
2.71
-1.04
-4.54
-7.34
-9.21
-10.38
-11.45
-13.26
-16.58
-21.98
-29.74
-39.75
-51.29
-62.84
-72.17
-76.75
-74.52
-64.64
-47.93
-26.63
-3.67
18.22
37.14
52.20
63.20
70.24
73.44
72.83
68.63
61.34
51.89
41.54
31.58
23.04
16.38
11.55
8.06
5.32
2.88
0.61
-1.42
-3.14
-4.60
-6.16
-8.35
-11.71
-16.76
-23.83
-33.03
-44.06
-55.98
-67.10
-75.16
-77.78
-73.24
-61.13
-42.60
-20.10
3.32
24.90
42.80
56.23
65.18
69.97
70.96
68.40
62.74
54.69
45.37
36.08
27.88
21.34
16.40
12.56
9.18
5.82
2.42
-0.75
-3.31
-5.08
-6.17
-7.11
-8.57
-11.29
-15.80
-22.45
-31.31
-42.09
-53.89
-65.10
-73.44
-76.48
-72.36
-60.55
-42.16
-19.71
3.72
25.34
43.32
56.84
65.88
70.62
71.30
68.10
61.46
52.28
41.85
31.62
22.79
16.07
11.43
8.41
6.31
4.52
2.68
0.73
-1.24
-3.14
-5.00
-7.05
-9.68
-13.35
-18.51
-25.53
-34.56
-45.30
-56.83
-67.53
-75.20
-77.62
-73.14
-61.36
-43.38
-21.59
1.05
21.82
38.87
51.47
59.69
63.98
64.77
62.36
57.08
49.52
40.60
31.52
23.36
16.81
12.00
8.53
5.82
3.35
0.85
-1.64
-3.95
-5.96
-7.67
-9.27
-11.13
-13.74
-17.58
-23.19
-30.94
-40.89
-52.47
-64.26
-74.06
-79.32
-77.89
-68.75
-52.51
-31.30
-8.04
14.32
33.56
48.45
58.63
64.25
65.67
63.34
57.94
50.42
41.96
33.73
26.68
21.28
17.46
14.80
12.68
10.59
8.20
5.46
2.57
-0.19
-2.63
-4.74
-6.78
-9.26
-12.76
-17.86
-24.97
-34.18
-45.13
-56.78
-67.43
-74.88
-76.93
-72.12
-60.24
-42.59
-21.59
-0.04
19.59
35.73
47.72
55.54
59.44
59.76
56.91
51.49
44.37
36.55
29.02
22.54
17.45
13.70
10.94
8.70
6.58
4.34
1.99
-0.31
-2.39
-4.15
-5.78
-7.66
-10.30
-14.20
-19.76
-27.19
-36.36
-46.72
-57.11
-65.75
-70.56
-69.64
-61.95
-47.79
-28.78
-7.48
13.31
31.35
45.29
54.77
59.99
61.38
59.37
54.34
46.88
37.88
28.54
20.10
13.51
9.10
6.54
5.07
3.87
2.39
0.49
-1.62
-3.69
-5.57
-7.45
-9.63
-12.49
-16.40
-21.62
-28.37
-36.67
-46.12
-55.67
-63.57
-67.68
-66.17
-58.17
-44.24
-26.22
-6.65
12.02
28.14
40.90
50.24
56.24
58.92
58.19
54.13
47.27
38.67
29.71
21.71
15.49
11.16
8.27
6.06
3.96
1.77
-0.35
-2.09
-3.34
-4.29
-5.51
-7.67
-11.36
-16.94
-24.53
-34.02
-45.01
-56.57
-67.16
-74.63
-76.76
-71.94
-59.87
-41.88
-20.52
1.12
20.45
35.93
47.13
54.37
58.13
58.82
56.63
51.89
45.22
37.60
30.15
23.82
19.04
15.68
13.13
10.64
7.71
4.23
0.56
-2.78
-5.42
-7.33
-8.96
-10.93
-13.92
-18.41
-24.70
-32.88
-42.85
-53.97
-64.93
-73.63
-77.68
-75.02
-64.86
-48.01
-26.80
-4.31
16.57
33.82
46.59
54.92
59.34
60.42
58.66
54.48
48.46
41.35
34.06
27.46
22.16
18.36
15.86
14.18
12.75
11.15
9.25
7.03
4.68
2.28
-0.15
-2.70
-5.58
-9.04
-13.43
-19.15
-26.61
-35.95
-46.75
-57.77
-66.96
-71.89
-70.50
-61.83
-46.43
-26.38
-4.59
16.02
33.26
46.01
54.15
58.12
58.54
56.02
51.10
44.42
36.80
29.14
22.34
17.04
13.50
11.55
10.69
10.30
9.81
8.90
7.44
5.55
3.42
1.14
-1.38
-4.37
-8.19
-13.15
-19.53
-27.45
-36.82
-47.09
-57.05
-64.91
-68.59
-66.32
-57.31
-42.21
-22.89
-2.03
17.78
34.54
47.21
55.52
59.71
60.18
57.45
52.13
45.04
37.09
29.25
22.30
16.75
12.69
9.92
8.02
6.51
4.99
3.18
0.96
-1.66
-4.58
-7.71
-11.06
-14.81
-19.33
-25.09
-32.57
-41.97
-52.96
-64.53
-74.98
-82.12
-83.85
-78.73
-66.50
-48.26
-26.25
-3.28
17.98
35.55
48.41
56.43
60.12
60.33
57.92
53.72
48.43
42.64
36.87
31.50
26.86
23.09
20.19
18.01
16.33
14.87
13.39
11.68
9.53
6.78
3.34
-0.79
-5.51
-10.70
-16.29
-22.40
-29.37
-37.65
-47.52
-58.77
-70.32
-80.22
-86.03
-85.49
-77.35
-61.89
-40.98
-17.45
5.64
25.87
41.82
53.08
59.89
62.78
62.37
59.29
54.23
47.97
41.25
34.75
28.93
24.01
20.03
16.97
14.74
13.15
11.96
10.82
9.38
7.42
4.82
1.66
-1.92
-5.82
-10.08
-14.87
-20.55
-27.52
-36.10
-46.19
-57.08
-67.20
-74.39
-76.34
-71.41
-59.25
-41.08
-19.35
2.98
23.21
39.53
51.17
58.23
61.27
60.99
58.10
53.23
46.99
39.95
32.77
26.06
20.38
16.06
13.17
11.44
10.38
9.45
8.22
6.50
4.34
1.87
-0.80
-3.73
-7.14
-11.32
-16.57
-23.12
-31.15
-40.76
-51.66
-62.97
-72.99
-79.47
-80.17
-73.62
-59.78
-40.19
-17.58
5.00
24.99
40.83
52.09
59.02
62.22
62.25
59.59
54.68
48.09
40.54
32.82
25.75
19.84
15.33
12.04
9.54
7.38
5.20
2.94
0.64
-1.58
-3.78
-6.14
-9.02
-12.69
-17.35
-23.13
-30.19
-38.79
-49.05
-60.55
-71.98
-81.17
-85.46
-82.63
-71.80
-53.83
-31.19
-7.15
15.15
33.52
47.05
55.84
60.56
61.93
60.50
56.70
50.96
43.91
36.32
29.01
22.64
17.54
13.74
10.96
8.82
6.98
5.13
3.09
0.79
-1.78
-4.59
-7.60
-10.82
-14.34
-18.39
-23.38
-29.81
-38.18
-48.59
-60.40
-71.98
-80.91
-84.51
-80.72
-68.88
-49.98
-26.51
-1.60
21.74
41.38
56.25
66.19
71.64
73.23
71.61
67.43
61.30
53.92
45.97
38.15
31.04
25.01
20.14
16.29
13.16
10.41
7.86
5.39
2.99
0.56
-2.06
-5.10
-8.81
-13.33
-18.77
-25.23
-32.97
-42.21
-52.93
-64.42
-75.08
-82.56
-84.41
-78.88
-65.63
-46.03
-22.69
1.27
23.12
41.08
54.41
63.11
67.51
68.05
65.14
59.39
51.63
42.95
34.42
26.92
20.91
16.45
13.27
11.02
9.33
7.91
6.50
4.90
2.99
0.70
-1.98
-5.09
-8.77
-13.26
-18.96
-26.32
-35.56
-46.52
-58.30
-69.17
-76.85
-79.06
-74.21
-61.98
-43.62
-21.46
1.69
23.30
41.58
55.58
64.94
69.71
70.19
66.85
60.44
51.96
42.55
33.29
25.09
18.40
13.31
9.49
6.44
3.65
0.82
-2.03
-4.73
-7.09
-9.18
-11.35
-14.16
-18.25
-24.10
-32.06
-42.13
-53.95
-66.53
-78.18
-86.57
-89.34
-84.72
-72.29
-53.18
-29.78
-5.09
18.13
37.89
53.17
63.74
69.82
71.86
70.34
65.82
58.94
50.50
41.42
32.64
24.97
18.85
14.29
10.85
7.96
5.11
2.11
-0.89
-3.64
-5.97
-8.02
-10.28
-13.46
-18.24
-25.18
-34.51
-46.08
-59.11
-72.10
-82.83
-88.80
-87.78
-78.63
-61.72
-38.97
-13.35
11.95
34.29
52.07
64.66
72.29
75.55
75.10
71.63
65.80
58.30
49.94
41.52
33.78
27.22
21.96
17.77
14.20
10.81
7.34
3.81
0.40
-2.69
-5.44
-8.12
-11.25
-15.40
-21.15
-28.91
-38.86
-50.76
-63.70
-75.94
-85.10
-88.59
-84.42
-71.95
-52.21
-27.70
-1.65
22.83
43.50
59.17
69.51
74.79
75.50
72.31
66.02
57.64
48.31
39.13
30.99
24.41
19.47
15.89
13.23
11.00
8.83
6.53
4.09
1.65
-0.68
-2.94
-5.34
-8.30
-12.39
-18.26
-26.40
-36.96
-49.47
-62.58
-74.19
-81.81
-83.13
-76.81
-62.91
-42.95
-19.50
4.56
26.70
45.20
59.17
68.32
72.71
72.52
68.18
60.42
50.42
39.60
29.44
21.05
14.92
10.90
8.35
6.48
4.67
2.63
0.32
-2.16
-4.77
-7.65
-11.05
-15.33
-20.81
-27.84
-36.69
-47.52
-60.09
-73.43
-85.68
-94.31
-96.69
-90.98
-76.83
-55.66
-30.20
-3.74
20.83
41.60
57.68
68.96
75.61
77.92
76.22
71.02
63.20
53.97
44.60
36.16
29.27
23.97
19.88
16.42
13.09
9.68
6.19
2.82
-0.26
-3.03
-5.73
-8.84
-13.03
-19.02
-27.48
-38.75
-52.53
-67.69
-82.07
-92.89
-97.33
-93.34
-80.39
-59.69
-33.91
-6.39
19.70
42.05
59.40
71.46
78.54
81.23
80.23
76.29
70.20
62.84
55.08
47.74
41.37
36.20
32.08
28.56
25.13
21.42
17.37
13.24
9.41
6.10
3.23
0.39
-3.01
-7.51
-13.49
-21.18
-30.73
-42.18
-55.28
-69.04
-81.53
-90.11
-91.95
-85.10
-69.19
-45.73
-17.71
11.31
38.09
60.35
76.81
87.05
91.11
89.36
82.50
71.61
58.11
43.64
29.79
17.85
8.61
2.31
-1.22
-2.48
-2.11
-0.84
0.60
1.55
1.52
0.21
-2.36
-5.90
-10.01
-14.39
-18.95
-24.04
-30.31
-38.51
-49.08
-61.72
-75.04
-86.65
-93.63
-93.33
-84.27
-66.68
-42.57
-15.17
11.95
35.84
54.62
67.64
75.13
77.81
76.50
72.00
65.08
56.56
47.40
38.57
30.92
25.08
21.24
19.21
18.44
18.26
17.97
17.02
15.16
12.32
8.68
4.42
-0.24
-5.18
-10.36
-15.89
-22.07
-29.40
-38.49
-49.61
-62.30
-74.96
-84.99
-89.36
-85.69
-73.15
-52.86
-27.62
-1.01
23.70
44.26
59.66
69.79
75.07
75.96
73.01
66.90
58.55
49.12
39.74
31.38
24.51
19.34
15.65
13.19
11.62
10.58
9.63
8.32
6.21
3.00
-1.37
-6.75
-12.91
-19.60
-26.80
-34.76
-43.94
-54.80
-67.39
-80.89
-93.39
-102.16
-104.33
-97.86
-82.36
-59.33
-31.75
-3.20
23.09
44.94
61.35
72.29
78.26
80.02
78.38
74.17
68.22
61.34
54.18
47.24
40.84
35.21
30.48
26.75
23.98
22.01
20.44
18.80
16.60
13.51
9.39
4.31
-1.54
-7.95
-14.77
-21.94
-29.70
-38.47
-48.82
-61.07
-74.83
-88.67
-100.15
-106.29
-104.47
-93.46
-73.86
-48.12
-19.73
7.69
31.37
49.77
62.54
70.23
73.73
74.01
71.93
68.17
63.28
57.69
51.71
45.64
39.80
34.53
30.20
27.12
25.38
24.78
24.85
24.87
24.13
22.05
18.41
13.29
7.06
0.18
-7.01
-14.42
-22.27
-31.05
-41.34
-53.43
-66.94
-80.44
-91.55
-97.43
-95.65
-85.06
-66.36
-41.92
-15.14
10.59
32.67
49.70
61.37
68.09
70.58
69.68
66.18
60.84
54.41
47.54
40.77
34.47
28.85
24.00
20.00
16.87
14.70
13.47
13.03
12.96
12.68
11.55
9.12
5.26
0.23
-5.46
-11.37
-17.29
-23.49
-30.61
-39.40
-50.24
-62.65
-75.13
-85.23
-90.20
-87.80
-77.05
-58.71
-35.03
-9.24
15.40
36.29
51.95
61.98
66.87
67.52
64.88
59.84
53.13
45.39
37.24
29.35
22.30
16.53
12.23
9.32
7.47
6.21
5.10
3.76
1.97
-0.32
-3.11
-6.40
-10.19
-14.65
-19.94
-26.28
-33.93
-43.16
-54.14
-66.55
-79.32
-90.43
-97.19
-97.01
-88.28
-71.08
-47.33
-20.29
6.44
29.85
48.16
60.91
68.51
71.81
71.60
68.55
63.21
56.20
48.27
40.22
32.81
26.50
21.45
17.45
14.23
11.52
9.22
7.28
5.62
3.97
1.92
-0.95
-4.87
-9.80
-15.50
-21.70
-28.39
-35.91
-44.85
-55.64
-68.08
-80.86
-91.63
-97.45
-95.78
-85.31
-66.63
-42.08
-15.08
10.83
32.93
49.73
60.98
67.19
69.22
67.98
64.21
58.62
51.88
44.63
37.46
30.79
24.95
20.06
16.14
13.10
10.71
8.71
6.84
4.91
2.81
0.52
-2.03
-4.92
-8.34
-12.54
-17.73
-24.18
-32.14
-41.80
-53.05
-65.21
-76.68
-85.17
-88.10
-83.44
-70.55
-50.53
-26.01
-0.44
22.98
42.00
55.65
64.02
67.80
67.77
64.63
58.98
51.51
43.05
34.54
26.83
20.48
15.70
12.26
9.80
7.92
6.28
4.72
3.10
1.32
-0.76
-3.26
-6.31
-9.98
-14.30
-19.30
-25.17
-32.23
-40.83
-51.04
-62.26
-72.99
-80.94
-83.62
-79.17
-67.07
-48.42
-25.68
-1.93
19.94
37.92
51.05
59.27
63.04
62.93
59.48
53.26
44.93
35.40
25.73
17.01
10.05
5.20
2.33
0.84
0.06
-0.68
-1.75
-3.29
-5.26
-7.60
-10.30
-13.50
-17.41
-22.32
-28.57
-36.47
-46.15
-57.30
-68.91
-79.13
-85.57
-85.90
-78.66
-63.90
-43.28
-19.60
4.01
24.97
41.71
53.73
61.23
64.74
64.73
61.62
55.85
48.03
38.99
29.75
21.26
14.25
9.03
5.42
2.93
0.92
-1.11
-3.38
-5.82
-8.24
-10.56
-12.93
-15.75
-19.53
-24.78
-31.88
-41.03
-52.12
-64.55
-77.00
-87.38
-93.13
-91.91
-82.41
-65.00
-41.73
-15.79
9.46
31.36
48.46
60.48
67.83
71.21
71.20
68.31
63.05
56.08
48.22
40.32
33.11
27.03
22.21
18.43
15.36
12.62
9.93
7.17
4.29
1.41
-1.45
-4.34
-7.49
-11.24
-16.00
-22.19
-30.21
-40.27
-52.16
-65.05
-77.24
-86.39
-89.90
-85.75
-73.22
-53.30
-28.50
-2.22
22.27
42.54
57.44
66.92
71.66
72.52
70.32
65.73
59.34
51.76
43.67
35.79
28.66
22.65
17.93
14.47
12.08
10.50
9.42
8.50
7.48
6.11
4.27
1.86
-1.17
-4.91
-9.46
-15.07
-22.00
-30.56
-40.86
-52.42
-64.07
-73.83
-79.34
-78.47
-70.14
-54.73
-34.12
-11.14
11.13
30.22
44.57
53.64
57.55
56.82
52.13
44.30
34.44
23.87
14.08
6.37
1.61
-0.00
1.04
3.73
6.77
9.04
9.77
8.77
6.30
2.94
-0.75
-4.48
-8.33
-12.71
-18.21
-25.45
-34.80
-46.15
-58.58
-70.32
-78.92
-81.85
-77.25
-64.66
-45.26
-21.53
3.48
26.99
47.01
62.51
73.11
78.84
79.93
76.84
70.29
61.40
51.47
41.79
33.39
26.79
22.01
18.59
15.90
13.33
10.58
7.67
4.84
2.29
0.02
-2.29
-5.27
-9.64
-16.09
-25.11
-36.77
-50.55
-65.11
-78.30
-87.36
-89.69
-83.64
-69.15
-47.90
-22.89
2.54
25.57
44.48
58.67
68.27
73.72
75.42
73.69
69.00
62.07
53.86
45.47
37.79
31.33
26.17
21.99
18.35
14.92
11.57
8.34
5.39
2.77
0.34
-2.36
-5.85
-10.74
-17.53
-26.47
-37.54
-50.29
-63.69
-75.98
-84.82
-87.71
-82.79
-69.47
-48.91
-23.82
2.30
26.16
45.45
59.16
67.36
70.69
69.90
65.67
58.61
49.48
39.18
28.70
19.01
10.76
4.33
-0.20
-2.91
-3.96
-3.61
-2.17
-0.18
1.83
3.29
3.75
2.96
0.80
-2.73
-7.66
-14.16
-22.52
-32.94
-45.18
-58.22
-70.06
-78.05
-79.55
-72.88
-57.98
-36.64
-11.92
12.80
34.69
52.14
64.69
72.54
76.10
75.69
71.66
64.59
55.49
45.68
36.53
29.02
23.48
19.61
16.71
14.05
11.16
8.00
4.79
1.88
-0.59
-2.71
-4.88
-7.63
-11.60
-17.38
-25.44
-35.97
-48.56
-61.98
-74.13
-82.32
-84.06
-77.83
-63.70
-43.40
-19.78
4.07
25.54
43.09
56.09
64.61
68.98
69.64
67.02
61.72
54.47
46.18
37.80
30.14
23.73
18.76
15.08
12.27
9.92
7.65
5.30
2.83
0.31
-2.27
-5.05
-8.25
-12.24
-17.42
-24.26
-33.12
-44.09
-56.59
-69.15
-79.51
-85.05
-83.59
-74.13
-57.29
-35.13
-10.58
13.33
34.18
50.49
61.75
68.23
70.70
70.05
67.22
62.93
57.70
51.89
45.77
39.63
33.79
28.57
24.18
20.66
17.86
15.55
13.45
11.30
8.88
5.97
2.43
-1.83
-6.81
-12.39
-18.34
-24.57
-31.26
-38.88
-47.97
-58.67
-70.19
-80.63
-87.27
-87.44
-79.41
-63.25
-40.84
-15.36
9.70
31.50
48.33
59.69
65.96
67.95
66.61
62.87
57.60
51.59
45.38
39.36
33.68
28.41
23.67
19.63
16.54
14.59
13.70
13.56
13.57
13.02
11.37
8.33
3.97
-1.33
-7.04
-12.69
-18.03
-23.27
-28.94
-35.82
-44.45
-54.77
-65.75
-75.44
-81.30
-81.04
-73.29
-58.21
-37.50
-13.97
9.21
29.35
44.71
54.67
59.48
59.95
57.07
51.82
45.13
37.80
30.55
23.92
18.28
13.78
10.45
8.21
6.91
6.34
6.19
6.08
5.62
4.50
2.55
-0.26
-3.83
-7.98
-12.58
-17.54
-22.91
-28.92
-35.99
-44.44
-54.16
-64.28
-73.02
-78.01
-77.03
-68.80
-53.53
-33.00
-10.12
12.01
30.85
44.95
54.04
58.57
59.39
57.28
52.85
46.58
39.02
30.82
22.77
15.55
9.67
5.34
2.47
0.76
-0.18
-0.80
-1.57
-2.85
-4.89
-7.75
-11.28
-15.22
-19.33
-23.49
-27.86
-32.89
-39.20
-47.34
-57.32
-68.37
-78.74
-85.99
-87.61
-81.89
-68.46
-48.61
-24.91
-0.47
21.79
39.87
52.78
60.53
63.75
63.29
60.06
54.82
48.26
40.99
33.53
26.35
19.86
14.30
9.80
6.32
3.69
1.65
-0.06
-1.67
-3.38
-5.38
-7.82
-10.78
-14.27
-18.20
-22.46
-27.06
-32.30
-38.78
-47.05
-57.19
-68.28
-78.27
-84.40
-84.01
-75.59
-59.40
-37.49
-13.04
10.59
30.78
46.17
56.50
62.24
64.12
62.85
59.08
53.47
46.78
39.79
33.15
27.16
21.88
17.22
13.08
9.54
6.68
4.55
2.96
1.51
-0.31
-2.84
-6.12
-9.96
-14.05
-18.26
-22.73
-27.94
-34.45
-42.68
-52.60
-63.39
-73.46
-80.60
-82.52
-77.46
-64.90
-45.84
-22.63
1.59
23.76
41.67
54.34
61.82
64.85
64.30
60.92
55.34
48.17
40.17
32.13
24.82
18.71
13.94
10.36
7.65
5.52
3.72
2.05
0.33
-1.60
-3.84
-6.45
-9.39
-12.63
-16.24
-20.42
-25.63
-32.39
-41.11
-51.64
-63.01
-73.32
-80.07
-80.90
-74.36
-60.52
-40.93
-18.25
4.61
25.16
41.82
53.90
61.31
64.30
63.21
58.57
51.04
41.55
31.21
21.15
12.33
5.36
0.47
-2.60
-4.37
-5.51
-6.58
-7.92
-9.61
-11.46
-13.33
-15.18
-17.23
-20.00
-24.11
-30.18
-38.58
-49.21
-61.25
-73.08
-82.36
-86.66
-84.05
-73.79
-56.62
-34.62
-10.54
12.87
33.55
50.25
62.41
69.92
72.80
71.30
65.92
57.61
47.67
37.53
28.44
21.12
15.74
11.94
9.19
6.97
4.97
3.10
1.41
-0.03
-1.24
-2.34
-3.68
-5.72
-9.12
-14.54
-22.55
-33.33
-46.34
-60.11
-72.31
-80.15
-81.13
-73.80
-58.39
-36.77
-11.98
12.67
34.42
51.63
63.74
70.96
73.85
72.95
68.78
61.84
52.84
42.63
32.24
22.57
14.23
7.44
2.02
-2.34
-5.94
-8.84
-10.98
-12.24
-12.74
-12.85
-13.20
-14.47
-17.22
-21.78
-28.36
-36.95
-47.26
-58.50
-69.19
-77.29
-80.58
-77.27
-66.69
-49.58
-27.91
-4.35
18.41
38.28
53.89
64.61
70.23
70.87
66.86
58.94
48.26
36.32
24.72
14.75
7.09
1.75
-1.82
-4.40
-6.61
-8.77
-10.86
-12.70
-14.19
-15.45
-16.92
-19.25
-23.18
-29.34
-38.00
-48.83
-60.77
-72.02
-80.32
-83.44
-79.80
-68.98
-51.89
-30.56
-7.55
14.69
34.20
49.78
60.78
67.00
68.47
65.56
59.01
50.03
40.04
30.42
22.16
15.58
10.44
6.18
2.37
-1.05
-3.79
-5.42
-5.77
-5.19
-4.54
-5.03
-7.83
-13.75
-22.95
-34.76
-47.68
-59.50
-67.76
-70.23
-65.57
-53.62
-35.56
-13.58
9.82
32.31
52.16
68.25
79.91
86.73
88.58
85.72
79.04
70.00
60.30
51.40
44.01
38.06
32.88
27.79
22.58
17.64
13.67
11.21
10.11
9.53
8.22
4.87
-1.52
-11.38
-24.55
-40.00
-55.66
-68.30
-74.21
-70.40
-55.91
-32.64
-4.82
22.54
45.52
62.49
74.03
81.76
86.87
89.46
88.72
83.99
75.59
65.04
54.40
45.32
38.35
32.89
27.84
22.32
16.18
10.01
4.84
1.43
-0.15
-0.62
-1.39
-3.97
-9.61
-18.82
-31.19
-45.42
-59.37
-70.46
-76.15
-74.54
-64.96
-48.16
-26.18
-1.77
22.33
43.94
61.69
74.93
83.46
87.36
86.90
82.67
75.55
66.70
57.30
48.35
40.45
33.77
28.18
23.32
18.89
14.70
10.70
6.97
3.56
0.47
-2.51
-5.75
-9.82
-15.41
-23.16
-33.53
-46.35
-60.59
-74.23
-84.54
-88.72
-84.84
-72.49
-52.92
-28.75
-3.10
21.16
41.96
58.14
69.34
75.66
77.53
75.58
70.56
63.32
54.74
45.65
36.90
29.19
23.05
18.65
15.70
13.62
11.70
9.39
6.49
3.14
-0.43
-4.02
-7.59
-11.34
-15.55
-20.58
-26.90
-34.96
-45.12
-57.14
-69.96
-81.52
-89.12
-90.16
-83.00
-67.56
-45.46
-19.55
6.89
30.90
50.49
64.66
73.31
76.96
76.43
72.67
66.69
59.44
51.73
44.18
37.14
30.80
25.27
20.68
17.17
14.79
13.34
12.35
11.19
9.28
6.32
2.35
-2.34
-7.34
-12.41
-17.52
-22.90
-29.03
-36.49
-45.77
-56.86
-68.98
-80.30
-88.26
-90.19
-84.22
-70.00
-48.94
-23.84
1.95
25.38
44.37
57.96
66.10
69.33
68.45
64.34
57.94
50.14
41.83
33.73
26.39
20.19
15.35
11.89
9.75
8.67
8.25
8.06
7.63
6.59
4.74
2.11
-1.21
-5.02
-9.11
-13.37
-17.79
-22.62
-28.33
-35.48
-44.47
-55.07
-66.07
-75.34
-80.24
-78.48
-68.86
-51.92
-29.81
-5.69
17.20
36.29
50.13
58.37
61.49
60.45
56.31
50.15
42.96
35.53
28.42
21.99
16.32
11.40
7.14
3.57
0.73
-1.28
-2.51
-3.14
-3.58
-4.32
-5.75
-8.04
-11.13
-14.73
-18.63
-22.78
-27.43
-33.08
-40.25
-49.16
-59.37
-69.58
-77.72
-81.45
-78.83
-68.96
-52.44
-31.22
-8.14
13.86
32.39
46.07
54.49
58.03
57.49
53.79
47.85
40.49
32.46
24.39
16.83
10.18
4.66
0.34
-2.83
-5.01
-6.43
-7.32
-8.02
-8.83
-10.03
-11.72
-13.88
-16.34
-19.03
-21.99
-25.57
-30.29
-36.69
-45.02
-54.86
-65.02
-73.53
-78.14
-76.84
-68.57
-53.61
-33.60
-11.11
11.04
30.44
45.48
55.48
60.52
61.18
58.32
52.85
45.70
37.70
29.59
21.93
15.19
9.63
5.38
2.33
0.19
-1.46
-2.97
-4.61
-6.42
-8.35
-10.28
-12.16
-14.06
-16.17
-18.83
-22.43
-27.44
-34.23
-42.85
-52.72
-62.51
-70.21
-73.59
-70.89
-61.32
-45.51
-25.35
-3.44
17.49
35.30
48.69
57.21
61.06
60.77
56.98
50.47
42.07
32.69
23.26
14.68
7.58
2.30
-1.20
-3.29
-4.44
-5.17
-5.82
-6.60
-7.59
-8.85
-10.42
-12.40
-14.86
-17.88
-21.59
-26.24
-32.20
-39.81
-48.99
-58.87
-67.70
-73.08
-72.76
-65.48
-51.46
-32.45
-11.16
9.62
27.74
41.95
51.85
57.49
59.11
57.06
51.81
44.11
34.99
25.58
16.91
9.70
4.20
0.22
-2.68
-5.02
-7.16
-9.21
-11.06
-12.53
-13.56
-14.28
-15.07
-16.42
-18.84
-22.81
-28.65
-36.51
-46.11
-56.58
-66.36
-73.45
-75.75
-71.77
-61.10
-44.58
-24.16
-2.31
18.53
36.45
50.24
59.39
63.93
64.19
60.78
54.47
46.18
36.86
27.38
18.50
10.69
4.24
-0.79
-4.51
-7.16
-9.05
-10.38
-11.35
-12.00
-12.46
-12.97
-13.98
-16.09
-19.90
-25.91
-34.28
-44.74
-56.40
-67.77
-76.80
-81.26
-79.33
-70.17
-54.32
-33.66
-10.89
11.17
30.34
45.29
55.64
61.53
63.35
61.54
56.55
49.05
39.95
30.37
21.41
13.89
8.17
4.06
1.05
-1.47
-3.86
-6.22
-8.32
-9.92
-10.94
-11.59
-12.35
-13.85
-16.74
-21.61
-28.88
-38.69
-50.58
-63.24
-74.44
-81.46
-81.74
-73.83
-58.01
-36.25
-11.65
12.50
33.59
50.14
61.65
68.26
70.39
68.43
62.96
54.74
44.86
34.62
25.26
17.67
12.16
8.45
5.83
3.52
0.96
-2.00
-5.11
-7.95
-10.20
-11.85
-13.23
-15.01
-17.99
-22.97
-30.55
-40.84
-53.19
-66.04
-76.97
-83.24
-82.49
-73.56
-56.89
-34.58
-9.65
14.72
36.03
52.77
64.46
71.24
73.53
71.80
66.54
58.40
48.34
37.61
27.58
19.36
13.54
9.99
8.03
6.77
5.46
3.75
1.71
-0.40
-2.44
-4.52
-7.05
-10.58
-15.68
-22.78
-32.12
-43.61
-56.53
-69.40
-80.04
-85.89
-84.82
-75.75
-59.17
-36.97
-11.96
13.05
35.88
55.18
70.32
80.97
86.83
87.65
83.43
74.74
62.83
49.53
36.79
26.27
18.88
14.60
12.61
11.69
10.65
8.83
6.23
3.38
0.91
-0.92
-2.49
-4.89
-9.34
-17.04
-28.53
-43.48
-60.66
-77.84
-91.80
-98.67
-94.90
-78.63
-51.00
-16.37
18.86
48.43
68.53
78.82
81.87
81.24
79.51
77.28
73.65
67.51
58.74
48.59
38.98
31.45
26.39
23.12
20.46
17.51
14.08
10.55
7.71
5.98
5.19
4.63
3.30
0.31
-4.80
-12.13
-21.52
-32.73
-45.39
-58.75
-71.28
-80.75
-84.56
-80.55
-67.89
-47.51
-21.99
5.18
30.60
51.73
67.33
77.18
81.80
81.93
78.40
72.03
63.74
54.55
45.50
37.50
31.05
26.21
22.65
19.79
17.09
14.24
11.26
8.37
5.78
3.56
1.50
-0.80
-3.83
-8.05
-13.93
-21.90
-32.24
-44.84
-58.76
-72.14
-82.30
-86.38
-82.23
-69.24
-48.61
-23.14
3.64
28.40
48.80
63.74
73.16
77.64
77.91
74.72
68.83
61.10
52.51
44.01
36.36
30.02
25.08
21.38
18.67
16.66
15.10
13.75
12.42
10.93
9.08
6.71
3.65
-0.22
-4.99
-10.72
-17.56
-25.71
-35.40
-46.57
-58.40
-69.17
-76.36
-77.36
-70.44
-55.47
-34.10
-9.39
15.24
36.92
53.96
65.82
72.84
75.65
74.87
71.06
64.81
56.88
48.26
39.96
32.81
27.29
23.43
20.93
19.31
18.09
16.88
15.39
13.38
10.70
7.33
3.37
-0.94
-5.38
-9.92
-14.81
-20.60
-27.98
-37.44
-48.99
-61.74
-73.89
-82.89
-86.13
-81.70
-69.12
-49.63
-25.88
-1.15
21.52
40.06
53.54
61.97
65.80
65.63
62.07
55.85
47.87
39.21
30.93
23.87
18.50
14.87
12.72
11.60
10.98
10.43
9.65
8.48
6.93
5.06
2.90
0.39
-2.62
-6.37
-11.12
-17.19
-24.84
-34.19
-44.94
-56.09
-65.89
-72.03
-72.33
-65.38
-51.20
-31.38
-8.64
13.91
33.65
48.90
59.10
64.44
65.58
63.21
57.99
50.62
41.89
32.78
24.29
17.25
12.09
8.81
6.96
5.95
5.23
4.42
3.41
2.21
0.86
-0.65
-2.41
-4.59
-7.41
-11.08
-15.91
-22.28
-30.51
-40.58
-51.74
-62.31
-69.89
-72.00
-66.91
-54.45
-36.13
-14.74
6.56
25.23
39.79
49.91
55.84
57.98
56.64
52.08
44.77
35.60
25.79
16.69
9.33
4.25
1.33
-0.04
-0.66
-1.32
-2.51
-4.40
-6.91
-9.82
-12.95
-16.19
-19.52
-23.07
-27.08
-31.94
-38.10
-45.80
-54.74
-63.81
-71.09
-74.32
-71.67
-62.36
-47.13
-27.91
-7.30
12.29
29.12
42.32
51.65
57.18
59.03
57.40
52.68
45.56
36.98
28.01
19.59
12.40
6.71
2.46
-0.68
-3.12
-5.28
-7.40
-9.59
-11.73
-13.72
-15.54
-17.34
-19.49
-22.51
-26.92
-33.11
-41.16
-50.66
-60.54
-69.11
-74.29
-74.16
-67.53
-54.43
-36.28
-15.48
5.21
23.45
37.74
47.58
53.16
55.06
53.89
50.15
44.41
37.26
29.46
21.85
15.15
9.79
5.80
2.87
0.48
-1.78
-4.10
-6.42
-8.50
-10.18
-11.44
-12.58
-14.07
-16.47
-20.26
-25.85
-33.39
-42.72
-53.15
-63.31
-71.20
-74.59
-71.67
-61.67
-45.31
-24.65
-2.49
18.29
35.53
48.04
55.61
58.58
57.65
53.57
47.11
39.16
30.68
22.64
15.83
10.67
7.15
4.82
3.07
1.37
-0.59
-2.76
-4.89
-6.72
-8.15
-9.33
-10.65
-12.67
-15.92
-20.87
-27.78
-36.62
-46.81
-57.20
-66.00
-71.05
-70.40
-62.92
-48.84
-29.78
-8.33
12.72
31.12
45.54
55.57
61.29
62.94
60.74
54.98
46.34
36.02
25.56
16.47
9.76
5.61
3.37
1.96
0.31
-2.17
-5.45
-9.02
-12.33
-15.08
-17.41
-19.86
-23.13
-27.90
-34.70
-43.75
-54.74
-66.62
-77.49
-84.89
-86.41
-80.50
-67.13
-47.90
-25.53
-3.00
17.27
33.87
46.33
54.73
59.31
60.29
57.93
52.65
45.15
36.40
27.47
19.33
12.66
7.70
4.32
2.13
0.59
-0.74
-2.14
-3.71
-5.43
-7.34
-9.56
-12.40
-16.29
-21.73
-29.28
-39.17
-51.18
-64.16
-76.03
-84.13
-85.85
-79.57
-65.31
-44.80
-20.96
2.99
24.40
41.73
54.44
62.75
67.08
67.90
65.66
60.85
54.20
46.57
38.87
31.83
25.86
20.99
16.99
13.49
10.23
7.12
4.23
1.66
-0.59
-2.69
-4.99
-7.88
-11.72
-16.81
-23.49
-32.04
-42.59
-54.76
-67.37
-78.30
-84.88
-84.65
-76.25
-59.99
-37.90
-13.12
11.10
32.25
48.93
60.77
68.03
71.13
70.51
66.69
60.32
52.38
43.91
35.91
29.07
23.68
19.62
16.53
13.92
11.40
8.80
6.12
3.54
1.23
-0.77
-2.65
-4.83
-7.84
-12.16
-18.25
-26.34
-36.49
-48.28
-60.68
-71.86
-79.43
-81.01
-74.99
-61.11
-40.75
-16.56
8.32
31.03
49.66
63.23
71.65
75.14
74.13
69.16
61.03
50.87
40.09
30.10
21.98
16.21
12.57
10.33
8.58
6.54
3.84
0.55
-3.02
-6.49
-9.70
-12.72
-15.97
-20.06
-25.70
-33.53
-43.86
-56.33
-69.73
-81.81
-89.76
-90.88
-83.42
-67.31
-44.12
-16.70
11.71
38.30
61.10
79.03
91.57
98.42
99.44
94.71
84.88
71.31
56.05
41.36
29.16
20.50
15.16
12.04
9.55
6.46
2.27
-2.70
-7.65
-11.90
-15.32
-18.44
-22.40
-28.34
-37.26
-49.59
-64.97
-82.10
-98.59
-110.96
-115.17
-107.83
-87.69
-56.71
-19.93
15.98
45.14
64.51
74.42
77.79
77.95
76.98
75.06
71.22
64.69
55.84
46.28
37.86
31.74
27.76
24.79
21.51
17.23
12.16
7.16
3.32
1.15
0.42
0.15
-0.97
-4.15
-10.13
-19.09
-30.76
-44.47
-59.21
-73.36
-84.76
-90.96
-89.78
-80.08
-62.29
-38.44
-11.62
14.92
38.47
57.35
70.85
78.91
81.88
80.31
74.98
66.98
57.58
48.09
39.59
32.65
27.31
23.18
19.66
16.26
12.77
9.24
5.98
3.29
1.29
-0.19
-1.67
-3.93
-7.82
-14.08
-23.12
-34.78
-48.11
-61.33
-71.99
-77.53
-75.96
-66.44
-49.65
-27.58
-3.03
21.19
42.73
60.09
72.44
79.50
81.34
78.35
71.34
61.52
50.41
39.59
30.31
23.22
18.24
14.73
11.79
8.63
4.97
1.00
-2.78
-5.84
-8.01
-9.62
-11.51
-14.80
-20.59
-29.59
-41.75
-56.01
-70.30
-81.87
-87.88
-86.22
-76.17
-58.67
-35.99
-11.09
13.17
34.63
52.01
64.69
72.50
75.48
73.88
68.31
59.79
49.69
39.50
30.40
22.99
17.27
12.68
8.58
4.47
0.29
-3.69
-7.09
-9.69
-11.65
-13.55
-16.31
-20.94
-28.25
-38.55
-51.42
-65.48
-78.48
-87.73
-90.68
-85.80
-73.03
-53.92
-31.11
-7.56
14.22
32.67
47.06
57.26
63.26
65.10
62.92
57.31
49.35
40.49
32.16
25.31
20.19
16.34
13.02
9.56
5.74
1.83
-1.60
-4.06
-5.40
-5.95
-6.53
-8.16
-11.87
-18.46
-28.25
-40.83
-54.90
-68.30
-78.30
-82.32
-78.62
-66.99
-48.81
-26.66
-3.54
17.91
35.90
49.57
58.64
63.11
63.16
59.13
51.81
42.43
32.53
23.57
16.55
11.75
8.82
7.04
5.70
4.37
3.00
1.73
0.75
0.04
-0.69
-1.96
-4.48
-8.97
-15.99
-25.64
-37.27
-49.42
-59.76
-65.81
-65.47
-57.76
-43.11
-23.18
-0.35
22.92
44.53
62.93
76.94
85.70
88.67
85.84
77.87
66.18
52.62
39.14
27.20
17.58
10.30
4.85
0.48
-3.50
-7.42
-11.34
-15.06
-18.40
-21.39
-24.52
-28.62
-34.72
-43.67
-55.64
-69.72
-83.86
-95.23
-100.87
-98.57
-87.48
-68.33
-43.20
-14.93
13.54
39.71
61.78
78.61
89.70
94.93
94.54
89.17
79.84
67.97
55.21
43.13
32.83
24.72
18.47
13.22
8.14
2.76
-2.82
-8.00
-12.18
-15.13
-17.28
-19.76
-24.05
-31.59
-43.08
-58.10
-74.80
-90.11
-100.42
-102.39
-93.83
-74.38
-45.65
-11.12
24.47
56.16
79.92
93.57
97.26
93.06
84.04
73.12
62.28
52.38
43.57
35.85
29.41
24.45
20.95
18.38
15.93
12.89
9.10
4.94
1.16
-1.72
-3.60
-5.14
-7.56
-12.27
-20.39
-32.22
-46.83
-61.97
-74.51
-81.29
-80.03
-70.13
-52.79
-30.55
-6.42
16.94
37.71
54.83
67.76
76.10
79.60
78.29
72.73
64.02
53.68
43.26
33.99
26.56
21.09
17.33
14.77
12.93
11.44
10.14
8.94
7.82
6.61
4.92
2.13
-2.55
-9.85
-20.19
-33.34
-48.20
-62.74
-74.28
-80.15
-78.38
-68.50
-51.64
-30.25
-7.42
14.09
32.38
46.52
56.33
61.92
63.46
61.16
55.47
47.17
37.48
27.66
18.84
11.66
6.20
2.11
-1.17
-4.15
-7.07
-9.94
-12.53
-14.62
-16.19
-17.50
-19.18
-22.08
-27.10
-34.94
-45.71
-58.62
-71.89
-82.92
-88.86
-87.42
-77.67
-60.30
-37.53
-12.44
11.89
33.08
49.72
61.42
68.42
71.26
70.53
66.79
60.66
52.96
44.60
36.61
29.84
24.75
21.20
18.58
16.09
13.09
9.39
5.25
1.18
-2.40
-5.43
-8.35
-11.89
-16.80
-23.66
-32.73
-43.82
-56.23
-68.67
-79.26
-85.79
-86.17
-79.13
-64.78
-44.69
-21.56
1.58
22.22
38.80
50.84
58.61
62.64
63.40
61.22
56.38
49.36
40.89
31.99
23.65
16.74
11.59
8.11
5.80
3.99
2.12
-0.15
-2.90
-6.15
-9.89
-14.20
-19.08
-24.33
-29.61
-34.59
-39.22
-43.80
-48.69
-53.86
-58.34
-60.21
-57.11
-47.28
-30.42
-8.05
16.83
40.79
61.00
75.91
85.22
89.48
89.48
85.92
79.42
70.58
60.30
49.65
39.76
31.47
25.15
20.57
17.12
14.14
11.06
7.69
4.11
0.59
-2.69
-5.71
-8.59
-11.60
-14.94
-18.84
-23.54
-29.45
-37.00
-46.43
-57.29
-68.19
-76.90
-80.80
-77.87
-67.42
-50.45
-29.37
-7.23
13.11
29.68
41.48
48.40
50.89
49.70
45.73
40.00
33.49
27.02
21.14
16.09
11.96
8.68
6.20
4.44
3.32
2.65
2.20
1.72
0.98
-0.16
-1.88
-4.34
-7.73
-12.15
-17.62
-24.01
-31.17
-38.98
-47.40
-56.25
-65.02
-72.61
-77.37
-77.48
-71.52
-59.16
-41.37
-20.32
1.27
20.84
36.57
47.58
53.86
55.90
54.38
50.06
43.74
36.19
28.27
20.71
14.02
8.41
3.90
0.42
-2.00
-3.21
-3.02
-1.45
1.12
3.94
6.06
6.69
5.42
2.35
-2.01
-7.11
-12.49
-18.04
-23.97
-30.66
-38.33
-46.88
-55.55
-62.89
-67.02
-66.12
-59.03
-45.82
-27.86
-7.52
12.48
29.83
43.13
51.90
56.46
57.45
55.56
51.41
45.55
38.53
30.97
23.55
16.89
11.45
7.46
4.88
3.41
2.67
2.19
1.57
0.56
-1.02
-3.18
-5.88
-9.00
-12.48
-16.27
-20.49
-25.43
-31.43
-38.83
-47.55
-56.86
-65.19
-70.45
-70.57
-64.20
-51.28
-33.21
-12.45
8.21
26.32
40.39
49.84
54.85
55.97
53.80
48.99
42.17
34.10
25.58
17.42
10.28
4.59
0.53
-2.05
-3.37
-3.84
-3.80
-3.62
-3.55
-3.83
-4.65
-6.18
-8.53
-11.71
-15.68
-20.35
-25.72
-31.89
-38.88
-46.42
-53.54
-58.72
-60.10
-56.15
-46.30
-31.21
-12.69
6.88
25.07
40.02
50.57
56.27
57.30
54.31
48.22
40.13
31.14
22.23
14.15
7.42
2.32
-1.14
-3.17
-4.15
-4.52
-4.66
-4.82
-5.08
-5.53
-6.30
-7.65
-9.87
-13.16
-17.60
-23.17
-29.83
-37.51
-46.02
-54.82
-62.86
-68.58
-70.28
-66.60
-57.15
-42.67
-25.03
-6.57
10.43
24.43
34.73
41.51
45.39
47.10
47.16
45.85
43.27
39.54
34.85
29.44
23.62
17.58
11.49
5.45
-0.31
-5.58
-10.08
-13.67
-16.35
-18.36
-20.03
-21.73
-23.79
-26.53
-30.28
-35.40
-42.07
-50.04
-58.41
-65.63
-69.83
-69.35
-63.34
-52.10
-37.00
-20.05
-3.35
11.42
23.23
31.65
36.60
38.19
36.56
32.03
25.14
16.75
7.87
-0.57
-7.88
-13.84
-18.56
-22.37
-25.43
-27.61
-28.64
-28.25
-26.44
-23.59
-20.43
-17.79
-16.47
-17.11
-20.13
-25.73
-33.58
-42.79
-51.67
-58.05
-59.75
-55.25
-44.26
-27.85
-8.07
12.62
32.01
48.45
60.94
68.98
72.47
71.59
66.96
59.50
50.40
40.81
31.64
23.37
16.09
9.66
3.96
-0.98
-5.01
-7.98
-9.89
-11.03
-11.89
-13.13
-15.38
-19.26
-25.17
-33.26
-43.18
-53.86
-63.50
-69.82
-70.72
-64.97
-52.59
-34.97
-14.38
6.69
26.12
42.41
54.72
62.58
65.84
64.53
59.12
50.45
39.81
28.60
18.04
8.91
1.42
-4.65
-9.69
-13.97
-17.52
-20.17
-21.75
-22.30
-22.21
-22.22
-23.33
-26.58
-32.71
-41.79
-52.95
-64.24
-72.95
-76.31
-72.28
-60.21
-41.13
-17.42
7.85
31.77
52.11
67.59
77.72
82.57
82.53
78.27
70.79
61.40
51.57
42.57
35.16
29.36
24.61
20.12
15.34
10.22
5.26
1.10
-1.76
-3.38
-4.33
-5.63
-8.44
-13.69
-21.83
-32.55
-44.59
-55.92
-63.99
-66.41
-61.59
-49.29
-30.77
-8.40
14.99
36.81
55.20
69.19
78.49
83.19
83.55
80.03
73.29
64.35
54.47
44.89
36.51
29.71
24.28
19.72
15.51
11.44
7.65
4.49
2.26
0.97
0.17
-0.90
-3.13
-7.35
-14.10
-23.48
-34.91
-47.05
-57.75
-64.46
-64.90
-57.70
-43.09
-22.79
0.39
23.43
43.78
59.92
71.26
77.80
79.79
77.60
71.72
62.95
52.45
41.57
31.54
23.20
16.81
12.10
8.51
5.52
2.82
0.37
-1.66
-3.17
-4.24
-5.17
-6.44
-8.66
-12.46
-18.36
-26.63
-37.05
-48.62
-59.56
-67.53
-70.19
-66.00
-54.69
-37.44
-16.59
5.15
25.27
41.99
54.32
61.88
64.68
63.01
57.44
48.88
38.59
27.96
18.26
10.31
4.32
-0.01
-3.23
-5.83
-8.00
-9.64
-10.56
-10.73
-10.45
-10.38
-11.29
-13.94
-18.83
-26.11
-35.39
-45.68
-55.37
-62.43
-64.83
-61.14
-51.03
-35.49
-16.53
3.41
22.14
38.11
50.59
59.30
64.21
65.32
62.74
56.90
48.68
39.35
30.25
22.43
16.37
11.92
8.54
5.72
3.20
1.11
-0.24
-0.69
-0.43
-0.13
-0.77
-3.34
-8.63
-16.88
-27.67
-39.79
-51.35
-60.06
-63.76
-60.92
-51.12
-35.26
-15.30
6.21
26.77
44.35
57.70
66.28
70.11
69.55
65.20
57.91
48.77
39.02
29.84
22.14
16.30
12.09
8.95
6.21
3.46
0.65
-1.96
-4.08
-5.54
-6.53
-7.50
-9.11
-12.08
-16.99
-24.16
-33.32
-43.41
-52.58
-58.52
-59.06
-52.93
-40.26
-22.61
-2.56
17.18
34.45
47.98
57.46
63.08
65.20
64.17
60.35
54.24
46.60
38.32
30.29
23.18
17.32
12.73
9.16
6.35
4.00
1.93
0.04
-1.69
-3.27
-4.84
-6.60
-8.88
-12.06
-16.52
-22.61
-30.53
-40.22
-51.14
-62.07
-71.10
-75.97
-74.72
-66.36
-51.34
-31.48
-9.52
11.71
29.96
43.90
53.11
57.81
58.60
56.21
51.47
45.20
38.21
31.18
24.59
18.71
13.65
9.48
6.15
3.68
1.96
0.83
0.05
-0.64
-1.51
-2.75
-4.50
-6.84
-9.87
-13.73
-18.62
-24.73
-32.23
-41.11
-50.95
-60.82
-69.24
-74.27
-74.07
-67.39
-54.11
-35.42
-13.59
8.59
28.45
44.13
54.69
60.14
61.09
58.51
53.39
46.70
39.27
31.78
24.76
18.59
13.47
9.46
6.54
4.58
3.36
2.65
2.18
1.68
0.92
-0.34
-2.20
-4.64
-7.50
-10.58
-13.77
-17.24
-21.43
-26.97
-34.43
-43.89
-54.68
-65.26
-73.40
-76.72
-73.43
-62.83
-45.70
-24.19
-1.19
20.37
38.18
50.98
58.49
61.14
59.79
55.45
49.13
41.84
34.45
27.58
21.59
16.58
12.49
9.30
6.98
5.59
5.01
4.96
4.98
4.62
3.54
1.65
-1.00
-4.22
-7.81
-11.63
-15.62
-19.88
-24.68
-30.52
-37.93
-47.15
-57.79
-68.44
-76.83
-80.36
-76.94
-65.78
-47.79
-25.39
-1.78
19.93
37.53
49.96
57.20
59.85
58.79
54.79
48.60
40.91
32.42
23.88
15.95
9.15
3.78
-0.10
-2.62
-3.99
-4.56
-4.69
-4.76
-5.06
-5.83
-7.17
-9.06
-11.47
-14.34
-17.69
-21.65
-26.48
-32.46
-39.80
-48.27
-57.07
-64.68
-69.08
-68.27
-60.93
-46.93
-27.59
-5.31
16.98
36.59
51.61
61.15
65.34
64.97
61.17
55.02
47.35
38.71
29.41
19.72
10.04
0.91
-7.09
-13.48
-18.11
-21.29
-23.76
-26.70
-31.68
-40.60
-55.51
-77.96
-108.21
-144.73
-184.16
-222.40
-256.04
-283.62
-305.97
-325.28
-343.45
-360.52
-374.46
-382.08
-380.69
-369.54
-350.11
-325.20
-297.37
-267.93
-236.88
-203.93
-169.60
-135.91
-105.90
-82.50
-67.25
-59.51
-57.00
-56.70
-56.02
-53.46
-48.42
-40.39
-28.57
-12.50
6.79
25.82
39.26
41.97
31.69
10.67
-15.00
-37.99
-53.09
-59.21
-59.11
-57.13
-56.45
-57.58
-58.68
-57.31
-52.05
-43.26
-32.46
-21.14
-9.80
2.26
16.41
33.92
54.87
77.78
99.96
118.37
130.93
137.36
139.34
139.74
141.40
145.98
153.61
163.22
173.42
183.31
192.92
202.98
214.50
228.36
245.12
264.99
287.66
311.81
334.94
353.47
363.54
362.22
348.60
324.24
292.74
258.68
226.40
199.21
178.98
166.27
160.55
160.42
163.81
168.31
171.66
172.11
168.85
