BVP
64.000000
-0.00
-0.00
-0.00
-0.00
-0.00
-0.00
-0.00
-0.00
-0.00
-0.00
0.00
0.01
0.01
-0.00
-0.03
-0.05
-0.05
0.00
0.13
0.36
0.66
1.01
1.37
1.72
2.06
2.40
2.79
3.24
3.80
4.42
5.06
5.66
6.20
6.68
7.15
7.68
8.31
9.14
10.09
11.04
11.88
12.56
13.14
13.76
14.65
15.96
17.91
20.32
22.90
25.38
27.58
29.57
31.68
34.32
37.81
42.54
48.15
54.10
59.83
64.97
69.58
74.14
79.34
85.71
93.76
103.00
112.62
121.73
129.77
136.75
143.30
150.75
157.77
166.64
177.95
191.79
206.97
220.57
228.25
225.36
208.53
176.87
132.76
80.05
23.07
-34.94
-92.44
-149.16
-205.23
-260.37
-313.74
-363.87
-409.83
-450.91
-486.50
-515.74
-537.23
-549.22
-549.96
-538.37
-514.21
-478.67
-433.88
-382.45
-327.02
-269.84
-212.63
-156.66
-102.95
-52.37
-5.90
35.58
71.43
101.35
125.50
144.38
158.69
169.15
176.37
180.75
182.57
182.07
179.51
175.23
169.65
163.18
156.15
148.81
141.30
133.69
126.02
118.33
110.69
103.16
95.82
88.72
81.86
75.25
68.90
62.81
57.01
51.51
46.33
41.50
36.99
32.79
28.89
25.28
21.94
18.88
16.12
13.65
11.47
9.54
7.82
6.27
4.85
3.56
2.42
1.45
0.67
0.07
-0.41
-0.88
-1.41
-2.05
-2.78
-3.53
-4.18
-4.67
-4.99
-5.24
-5.59
-6.17
-7.04
-8.13
-9.30
-10.35
-11.14
-11.69
-12.14
-12.72
-13.61
-14.88
-16.41
-17.98
-19.38
-20.49
-21.35
-22.11
-22.92
-23.85
-24.97
-26.46
-28.61
-31.59
-35.03
-37.83
-38.27
-34.64
-25.99
-12.53
4.44
23.08
41.61
58.64
73.04
83.83
90.07
91.18
87.29
79.42
69.17
58.18
47.66
38.15
29.87
22.90
17.42
13.64
11.63
11.19
11.83
13.12
14.71
16.50
18.37
20.09
21.26
21.39
20.31
18.35
16.37
15.26
15.50
16.67
17.81
18.12
17.83
18.03
20.00
24.08
28.69
30.92
27.94
18.74
5.18
-8.84
-18.83
-22.27
-19.45
-12.98
-5.91
-0.25
3.63
6.56
9.44
12.43
14.66
14.87
11.98
5.97
-2.33
-11.52
-20.22
-27.60
-33.57
-38.70
-43.28
-48.25
-53.75
-59.21
-63.60
-65.84
-65.31
-62.10
-57.37
-52.49
-48.52
-46.13
-45.31
-45.28
-44.88
-43.19
-39.78
-35.01
-29.71
-25.01
-21.88
-21.12
-23.14
-27.67
-33.32
-37.34
-36.08
-26.27
-7.06
19.01
46.14
67.67
78.66
77.81
67.65
52.91
38.20
26.13
17.08
9.83
3.58
-1.45
-4.25
-3.99
-0.93
3.61
7.49
8.52
4.93
-3.75
-17.28
-35.32
-57.43
-82.37
-107.20
-127.13
-133.94
-124.34
-99.21
-63.95
-26.83
4.33
25.28
36.42
41.50
45.00
49.44
55.19
61.60
68.38
76.16
85.64
96.13
104.93
108.17
102.56
87.54
65.99
42.76
22.52
7.89
-0.99
-5.51
-7.15
-6.97
-5.54
-3.75
-3.22
-5.73
-12.13
-21.73
-32.70
-43.26
-52.07
-58.78
-63.47
-65.92
-65.34
-61.01
-53.15
-42.97
-32.02
-21.03
-9.21
5.28
23.96
46.91
72.73
99.62
126.65
154.09
182.46
210.97
236.72
255.23
262.18
255.37
235.66
206.66
173.14
139.38
107.93
79.43
53.23
28.31
4.02
-19.54
-41.68
-61.31
-77.53
-89.93
-98.90
-105.45
-110.78
-115.87
-120.98
-125.69
-129.22
-130.95
-130.80
-129.22
-126.96
-124.60
-122.37
-120.25
-118.10
-115.78
-113.07
-109.52
-104.52
-97.72
-89.43
-80.72
-72.95
-67.08
-62.99
-59.54
-55.23
-48.98
-40.67
-31.08
-21.38
-12.62
-5.75
-1.67
-1.31
-5.28
-13.12
-22.98
-31.78
-36.33
-34.59
-26.43
-13.58
1.27
15.57
27.44
35.71
39.56
38.51
32.55
22.67
10.88
-0.25
-8.50
-12.75
-13.08
-10.26
-4.96
2.73
13.19
26.63
42.50
59.29
74.97
87.76
96.76
102.16
104.79
105.57
104.97
102.98
99.50
94.66
89.09
83.72
79.28
75.82
72.63
68.53
62.46
53.98
43.56
32.33
21.51
11.94
3.71
-3.64
-10.77
-17.98
-25.04
-31.26
-35.88
-38.52
-39.33
-38.97
-38.25
-37.97
-38.61
-40.44
-43.52
-47.83
-53.10
-58.81
-64.11
-68.10
-70.05
-69.69
-67.17
-63.00
-57.68
-51.51
-44.54
-36.77
-28.42
-20.17
-12.99
-7.79
-4.91
-3.94
-3.93
-3.83
-2.96
-1.24
1.01
3.35
5.52
7.48
9.20
10.47
10.97
10.40
8.83
6.70
4.66
3.27
2.63
2.50
2.47
2.32
2.05
1.78
1.41
0.40
-2.05
-6.60
-13.27
-21.21
-28.91
-34.82
-37.95
-38.21
-36.24
-32.87
-28.70
-23.93
-18.57
-12.87
-7.48
-3.20
-0.59
0.48
0.82
1.47
3.14
5.77
8.69
10.99
12.15
12.24
11.79
11.34
11.11
10.92
10.54
9.88
9.11
8.43
7.80
6.82
5.01
2.22
-1.16
-4.32
-6.48
-7.34
-7.23
-6.90
-6.94
-7.54
-8.40
-9.07
-9.20
-8.75
-7.86
-6.69
-5.30
-3.70
-2.00
-0.49
0.45
0.53
-0.30
-1.78
-3.47
-4.89
-5.74
-5.91
-5.51
-4.79
-3.97
-3.22
-2.59
-2.07
-1.59
-1.11
-0.58
0.02
0.73
1.51
2.32
3.06
3.60
3.86
3.81
3.54
3.15
2.78
2.49
2.28
2.13
2.06
2.06
2.21
2.63
3.39
4.54
6.04
7.74
9.46
10.94
12.03
12.66
12.88
12.79
12.45
11.88
11.07
10.12
9.23
8.66
8.65
9.24
10.22
11.20
11.75
11.57
10.60
9.06
7.32
5.79
4.77
4.42
4.71
5.47
6.44
7.32
7.83
7.75
7.02
5.75
4.21
2.71
1.55
0.87
0.65
0.71
0.83
0.80
0.53
-0.01
-0.75
-1.54
-2.22
-2.63
-2.62
-2.21
-1.53
-0.84
-0.44
-0.56
-1.31
-2.57
-4.07
-5.51
-6.65
-7.42
-7.89
-8.21
-8.39
-8.36
-7.95
-7.05
-5.73
-4.35
-3.38
-3.20
-3.94
-5.36
-7.04
-8.48
-9.30
-9.30
-8.49
-6.96
-4.95
-2.76
-0.77
0.72
1.51
1.63
1.27
0.75
0.38
0.39
0.87
1.86
3.23
4.79
6.22
7.23
7.63
7.41
6.77
6.00
5.42
5.18
5.30
5.62
5.92
5.95
5.56
4.74
3.65
2.52
1.65
1.21
1.19
1.44
1.67
1.67
1.31
0.59
-0.40
-1.58
-2.92
-4.47
-6.30
-8.46
-10.89
-13.31
-15.35
-16.58
-16.79
-16.02
-14.61
-13.00
-11.56
-10.42
-9.46
-8.49
-7.37
-6.13
-4.93
-3.95
-3.24
-2.79
-2.51
-2.32
-2.20
-2.16
-2.20
-2.34
-2.54
-2.79
-3.08
-3.48
-4.03
-4.79
-5.75
-6.84
-7.94
-8.89
-9.69
-10.49
-11.59
-13.38
-15.98
-19.23
-22.60
-25.48
-27.53
-28.90
-30.19
-32.27
-35.77
-40.82
-46.88
-52.96
-58.03
-61.48
-63.39
-64.46
-65.89
-69.01
-75.10
-84.88
-98.07
-112.77
-125.37
-131.08
-125.23
-105.08
-71.08
-27.09
20.83
66.58
105.98
137.68
162.78
183.39
201.26
216.93
229.82
238.86
243.16
242.31
236.56
226.64
213.74
199.30
184.69
170.86
157.99
145.48
132.39
118.00
102.33
86.23
71.07
58.18
48.37
41.62
37.17
33.66
29.35
22.55
11.99
-2.73
-20.79
-40.27
-58.63
-73.49
-83.28
-87.63
-87.40
-84.33
-80.47
-77.58
-76.68
-77.71
-79.70
-81.12
-80.53
-77.21
-71.51
-64.64
-58.20
-53.48
-50.94
-50.08
-49.69
-48.38
-45.19
-39.99
-33.67
-27.88
-24.41
-24.54
-28.46
-35.24
-43.10
-50.12
-54.81
-56.43
-55.04
-51.17
-45.54
-39.08
-32.86
-28.18
-26.31
-28.01
-33.03
-40.04
-46.97
-51.81
-53.41
-51.82
-48.07
-43.61
-39.53
-36.27
-33.67
-31.27
-28.68
-25.73
-22.50
-19.19
-15.96
-12.87
-9.76
-6.37
-2.46
1.93
6.29
9.84
11.82
12.04
11.14
10.35
11.00
13.73
18.15
22.90
26.39
27.62
26.59
24.25
21.77
19.93
18.74
17.56
15.72
13.03
9.90
7.07
5.06
3.88
3.02
1.85
0.01
-2.36
-4.88
-7.15
-9.10
-10.94
-12.95
-15.30
-17.91
-20.59
-23.18
-25.68
-28.18
-30.80
-33.52
-36.27
-38.97
-41.60
-44.19
-46.87
-49.81
-53.26
-57.56
-62.99
-69.73
-77.67
-86.37
-95.15
-103.29
-110.28
-115.71
-119.24
-120.12
-117.16
-108.76
-93.28
-69.42
-36.50
5.14
53.88
106.47
158.09
202.97
235.61
252.33
252.48
238.77
216.35
191.16
168.18
150.21
137.79
129.81
124.51
120.40
116.67
113.29
110.82
110.04
111.54
115.25
120.27
125.00
127.53
126.18
119.89
108.41
92.16
72.09
49.44
25.76
2.94
-17.04
-32.43
-42.28
-46.83
-47.57
-46.71
-46.41
-47.98
-51.50
-56.11
-60.57
-63.98
-66.17
-67.56
-68.73
-69.91
-70.79
-70.66
-68.84
-65.06
-59.62
-53.27
-46.91
-41.26
-36.65
-33.11
-30.50
-28.77
-27.99
-28.30
-29.81
-32.38
-35.59
-38.87
-41.59
-43.28
-43.77
-43.07
-41.37
-38.87
-35.73
-32.15
-28.33
-24.48
-20.77
-17.26
-13.95
-10.75
-7.56
-4.32
-1.06
2.08
4.87
7.08
8.56
9.32
9.54
9.48
9.41
9.48
9.71
10.04
10.32
10.38
10.03
9.13
7.61
5.50
2.95
0.23
-2.40
-4.75
-6.67
-8.13
-9.15
-9.74
-10.00
-10.10
-10.25
-10.65
-11.39
-12.35
-13.25
-13.65
-13.24
-11.89
-9.80
-7.40
-5.27
-3.84
-3.33
-3.66
-4.59
-5.84
-7.25
-8.71
-10.19
-11.58
-12.63
-13.02
-12.49
-10.99
-8.75
-6.22
-3.86
-1.94
-0.42
0.97
2.62
4.80
7.59
10.83
14.28
17.71
20.90
23.73
26.05
27.72
28.62
28.69
28.03
26.79
25.18
23.29
21.14
18.64
15.73
12.51
9.17
6.04
3.42
1.46
0.12
-0.88
-1.90
-3.24
-5.05
-7.29
-9.72
-12.07
-14.14
-15.79
-16.99
-17.76
-18.11
-18.04
-17.49
-16.39
-14.62
-12.04
-8.52
-4.07
1.10
6.44
11.17
14.48
15.85
15.23
13.04
10.00
6.83
4.02
1.69
-0.26
-2.07
-3.86
-5.60
-7.07
-7.98
-8.09
-7.30
-5.69
-3.43
-0.73
2.33
5.71
9.41
13.29
16.97
19.92
21.63
21.81
20.60
18.48
16.14
14.19
13.02
12.67
12.89
13.27
13.40
13.00
12.07
10.79
9.45
8.27
7.24
6.19
4.86
3.00
0.53
-2.51
-5.97
-9.65
-13.38
-16.94
-20.11
-22.69
-24.57
-25.72
-26.21
-26.04
-25.15
-23.38
-20.61
-16.84
-12.21
-6.99
-1.48
4.00
9.16
13.67
17.30
19.97
21.74
22.80
23.32
23.40
23.06
22.47
21.95
21.96
22.88
24.73
27.14
29.50
31.27
32.21
32.32
31.62
29.91
26.78
21.91
15.36
7.73
0.04
-6.71
-11.93
-15.59
-18.14
-20.16
-22.02
-23.74
-25.00
-25.39
-24.52
-22.24
-18.65
-14.10
-9.21
-4.82
-1.90
-1.42
-3.95
-9.31
-16.31
-22.85
-26.55
-25.65
-19.78
-10.27
0.32
9.08
13.93
14.14
10.40
4.20
-2.99
-10.29
-17.44
-24.58
-31.73
-38.60
-44.46
-48.51
-50.11
-49.07
-45.58
-40.12
-33.24
-25.44
-17.16
-8.78
-0.70
6.69
13.03
18.01
21.44
23.33
23.98
24.02
24.26
25.44
27.85
31.09
34.20
36.05
35.93
33.97
31.02
28.23
26.39
25.65
25.52
25.26
24.40
22.96
21.33
20.03
19.32
19.13
19.13
19.02
18.67
18.16
17.68
17.41
17.35
17.42
17.40
17.09
16.33
15.04
13.30
11.35
9.53
8.20
7.59
7.66
8.23
9.04
9.92
10.71
11.14
10.76
8.91
5.10
-0.69
-7.65
-14.25
-18.80
-20.16
-18.33
-14.53
-10.69
-8.63
-9.33
-12.70
-17.82
-23.65
-29.60
-35.77
-42.70
-50.81
-59.95
-69.37
-77.94
-84.76
-89.45
-92.27
-93.91
-95.15
-96.79
-99.74
-105.06
-113.71
-125.79
-139.73
-151.83
-157.01
-150.38
-129.27
-94.62
-50.91
-4.71
37.52
71.39
95.47
110.98
120.68
127.53
133.92
141.02
148.59
155.03
157.64
153.40
139.87
116.11
83.00
43.09
-0.01
-42.32
-79.96
-109.52
-128.56
-136.18
-133.50
-123.31
-109.03
-93.20
-76.45
-57.54
-34.66
-7.09
23.76
54.55
81.33
101.19
113.22
118.53
119.25
117.49
114.64
111.25
107.29
102.56
96.91
90.44
83.54
76.91
71.33
67.31
64.79
63.08
61.09
57.77
52.57
45.57
37.25
28.23
18.96
9.66
0.49
-8.28
-16.15
-22.56
-27.10
-29.78
-31.10
-31.83
-32.82
-34.83
-38.36
-43.68
-50.76
-59.27
-68.51
-77.47
-85.03
-90.07
-91.64
-88.99
-81.58
-69.26
-52.69
-33.69
-15.04
0.38
10.73
16.06
18.28
20.17
23.92
30.08
37.46
43.94
47.69
48.01
45.38
40.84
35.25
29.00
22.18
14.96
7.89
1.81
-2.54
-4.83
-5.40
-5.04
-4.67
-4.92
-5.81
-6.86
-7.42
-7.08
-5.90
-4.41
-3.24
-2.76
-2.84
-2.92
-2.33
-0.51
2.66
6.98
12.00
17.26
22.33
26.83
30.45
32.91
34.11
34.17
33.56
32.90
32.90
34.02
36.30
39.42
42.78
45.88
48.42
50.49
52.37
54.32
56.36
58.21
59.51
60.04
59.86
59.31
58.78
58.45
58.14
57.47
55.97
53.37
49.56
44.63
38.77
32.39
26.23
21.55
19.87
22.32
28.78
37.22
43.92
44.60
36.10
17.83
-8.01
-37.35
-65.85
-90.27
-108.91
-121.24
-127.27
-127.30
-122.22
-113.80
-104.69
-97.34
-92.70
-89.37
-84.21
-74.25
-58.71
-39.97
-22.75
-11.97
-10.62
-18.67
-33.40
-50.68
-66.45
-77.79
-83.26
-82.69
-76.81
-66.92
-54.57
-41.35
-28.54
-16.96
-6.95
1.57
8.84
15.09
20.46
24.85
27.78
28.56
26.58
21.70
14.52
6.21
-1.93
-8.99
-14.75
-19.74
-24.95
-31.49
-40.09
-50.78
-62.78
-74.65
-84.82
-92.27
-97.09
-100.65
-105.09
-112.44
-123.64
-137.88
-152.71
-164.63
-170.06
-166.30
-152.01
-127.43
-94.10
-54.57
-11.87
30.95
71.18
106.76
136.36
159.55
176.61
188.43
196.30
201.57
205.46
208.73
211.61
213.67
213.94
211.19
204.33
192.83
177.16
158.69
139.35
120.86
104.08
88.85
74.22
59.33
44.05
29.20
16.18
6.18
-0.38
-4.16
-6.67
-9.67
-14.70
-22.61
-33.30
-45.75
-58.37
-69.38
-77.40
-81.78
-82.58
-80.33
-75.63
-69.01
-61.06
-52.69
-45.04
-39.25
-35.94
-34.82
-34.76
-34.41
-32.85
-30.01
-26.65
-23.76
-21.95
-21.18
-20.80
-20.02
-18.35
-15.89
-13.11
-10.69
-9.06
-8.39
-8.59
-9.52
-11.11
-13.43
-16.49
-20.13
-23.97
-27.45
-30.08
-31.53
-31.76
-30.96
-29.45
-27.58
-25.65
-23.87
-22.28
-20.81
-19.25
-17.45
-15.38
-13.17
-11.03
-9.13
-7.43
-5.74
-3.84
-1.67
0.58
2.52
3.79
4.21
3.88
3.10
2.23
1.54
1.22
1.34
1.92
2.86
3.93
4.86
5.38
5.39
5.04
4.59
4.34
4.38
4.61
4.77
4.68
4.36
3.98
3.78
3.87
4.16
4.37
4.21
3.51
2.34
0.86
-0.72
-2.33
-4.01
-5.79
-7.61
-9.20
-10.20
-10.37
-9.73
-8.65
-7.69
-7.37
-7.98
-9.48
-11.53
-13.68
-15.53
-16.82
-17.44
-17.38
-16.75
-15.73
-14.60
-13.65
-13.07
-12.87
-12.90
-12.89
-12.58
-11.83
-10.70
-9.32
-7.87
-6.47
-5.15
-3.90
-2.69
-1.54
-0.47
0.40
1.00
1.26
1.20
0.99
0.91
1.21
1.99
3.16
4.37
5.32
5.82
5.93
5.86
5.82
5.89
6.01
6.05
5.96
5.74
5.45
5.13
4.72
4.08
3.07
1.67
-0.01
-1.77
-3.41
-4.80
-5.92
-6.84
-7.61
-8.25
-8.70
-8.89
-8.84
-8.75
-8.92
-9.71
-11.28
-13.51
-16.08
-18.56
-20.72
-22.55
-24.24
-25.99
-27.82
-29.51
-30.67
-30.94
-30.16
-28.48
-26.30
-24.15
-22.48
-21.54
-21.19
-20.98
-20.22
-18.20
-14.56
-9.43
-3.56
1.91
5.82
7.39
6.45
3.54
-0.26
-3.61
-5.23
-4.32
-0.72
4.98
11.66
18.14
23.63
28.04
31.86
35.82
40.28
45.05
49.44
52.71
54.49
55.04
54.97
54.91
55.22
55.80
56.29
56.22
55.19
52.92
49.26
44.32
38.49
32.34
26.45
21.17
16.51
12.26
8.23
4.42
1.01
-1.78
-3.88
-5.45
-6.73
-7.82
-8.57
-8.66
-7.83
-6.06
-3.70
-1.33
0.44
1.23
0.96
-0.11
-1.51
-2.68
-3.25
-3.09
-2.38
-1.48
-0.70
-0.20
0.08
0.28
0.55
0.94
1.41
1.92
2.41
2.84
3.12
3.16
2.85
2.14
1.07
-0.24
-1.64
-2.92
-3.87
-4.29
-4.11
-3.40
-2.43
-1.56
-1.10
-1.14
-1.51
-1.86
-1.90
-1.55
-1.00
-0.52
-0.36
-0.59
-1.16
-2.01
-3.16
-4.69
-6.64
-8.95
-11.50
-14.20
-17.06
-20.15
-23.40
-26.51
-28.98
-30.43
-30.87
-30.88
-31.43
-33.42
-37.32
-42.80
-48.86
-53.99
-56.55
-55.14
-48.98
-38.25
-24.20
-8.82
5.66
17.54
26.15
31.92
35.90
39.25
42.68
46.40
50.25
54.01
57.57
60.98
64.35
67.78
71.26
74.73
77.94
80.43
81.56
80.59
77.05
70.93
62.71
53.16
42.99
32.60
22.03
11.19
0.21
-10.39
-19.84
-27.48
-33.09
-37.06
-40.16
-43.08
-46.00
-48.55
-50.00
-49.79
-47.89
-44.87
-41.73
-39.36
-38.19
-37.92
-37.71
-36.55
-33.69
-29.05
-23.21
-17.23
-12.22
-8.97
-7.60
-7.65
-8.33
-8.82
-8.71
-8.04
-7.21
-6.78
-7.03
-7.92
-9.12
-10.25
-11.11
-11.75
-12.42
-13.31
-14.50
-15.85
-17.14
-18.12
-18.48
-17.78
-15.42
-10.72
-3.31
6.60
18.06
29.58
39.63
47.06
51.46
53.01
52.23
49.67
45.73
40.89
35.73
31.06
27.59
25.56
24.53
23.53
21.53
18.01
13.24
8.26
4.34
2.40
2.67
4.58
7.13
9.20
10.02
9.35
7.48
5.07
2.87
1.47
1.09
1.57
2.49
3.38
3.95
4.14
4.10
4.11
4.34
4.83
5.45
5.95
6.07
5.60
4.44
2.54
-0.14
-3.65
-8.08
-13.44
-19.50
-25.78
-31.59
-36.24
-39.26
-40.58
-40.48
-39.40
-37.77
-35.80
-33.59
-31.09
-28.36
-25.54
-22.88
-20.64
-18.94
-17.67
-16.49
-14.95
-12.74
-9.81
-6.42
-3.06
-0.21
1.89
3.27
4.17
4.85
5.46
6.08
6.70
7.35
8.00
8.55
8.78
8.43
7.34
5.61
3.63
1.93
0.99
0.98
1.74
2.86
3.91
4.56
4.73
4.55
4.29
4.22
4.51
5.21
6.13
6.97
7.37
6.99
5.69
3.63
1.19
-1.06
-2.65
-3.31
-3.11
-2.32
-1.30
-0.35
0.43
1.07
1.67
2.31
2.97
3.56
4.01
4.33
4.60
4.92
5.35
5.84
6.29
6.57
6.64
6.54
6.40
6.32
6.31
6.27
6.09
5.68
5.10
4.49
4.09
4.07
4.48
5.22
5.99
6.48
6.42
5.79
4.76
3.67
2.80
2.29
2.04
1.89
1.68
1.31
0.80
0.12
-0.79
-1.99
-3.42
-4.86
-5.97
-6.45
-6.25
-5.63
-5.00
-4.70
-4.83
-5.22
-5.58
-5.68
-5.52
-5.28
-5.13
-5.17
-5.32
-5.43
-5.38
-5.20
-5.00
-4.90
-4.94
-4.96
-4.78
-4.26
-3.41
-2.34
-1.17
-0.06
0.90
1.59
1.90
1.73
1.14
0.36
-0.32
-0.64
-0.51
-0.08
0.38
0.63
0.66
0.64
0.80
1.25
1.87
2.35
2.32
1.59
0.25
-1.36
-2.75
-3.50
-3.42
-2.63
-1.53
-0.58
-0.13
-0.30
-0.99
-1.95
-2.92
-3.66
-4.00
-3.87
-3.32
-2.49
-1.63
-1.03
-0.88
-1.25
-2.02
-2.96
-3.82
-4.40
-4.61
-4.39
-3.80
-2.88
-1.75
-0.59
0.38
0.92
0.88
0.27
-0.75
-1.84
-2.62
-2.79
-2.23
-1.10
0.29
1.59
2.55
3.13
3.35
3.31
2.98
2.35
1.45
0.42
-0.47
-0.97
-0.92
-0.40
0.36
1.08
1.55
1.69
1.54
1.25
0.96
0.84
0.98
1.38
1.93
2.39
2.57
2.37
1.90
1.40
1.11
1.15
1.43
1.77
2.01
2.09
2.08
2.05
1.97
1.76
1.33
0.70
0.03
-0.50
-0.74
-0.72
-0.60
-0.51
-0.56
-0.73
-1.00
-1.33
-1.71
-2.11
-2.48
-2.72
-2.81
-2.80
-2.84
-3.04
-3.41
-3.84
-4.13
-4.15
-3.91
-3.60
-3.44
-3.63
-4.18
-4.96
-5.77
-6.40
-6.75
-6.77
-6.50
-6.09
-5.71
-5.57
-5.86
-6.67
-7.96
-9.57
-11.25
-12.77
-13.94
-14.72
-15.18
-15.41
-15.55
-15.66
-15.69
-15.52
-14.93
-13.60
-11.25
-7.71
-3.05
2.34
7.85
12.87
16.95
20.05
22.49
24.66
26.84
28.95
30.59
31.26
30.74
29.14
26.90
24.54
22.39
20.50
18.75
16.99
15.24
13.69
12.54
11.95
11.93
12.40
13.19
14.15
15.02
15.46
15.06
13.49
10.60
6.46
1.29
-4.59
-10.79
-16.89
-22.32
-26.52
-29.03
-29.73
-28.86
-26.98
-24.71
-22.48
-20.47
-18.62
-16.82
-15.03
-13.30
-11.73
-10.35
-9.10
-7.91
-6.71
-5.54
-4.48
-3.66
-3.14
-2.86
-2.67
-2.36
-1.78
-0.92
0.05
0.85
1.19
0.87
-0.07
-1.37
-2.64
-3.47
-3.63
-3.11
-2.13
-1.08
-0.32
-0.05
-0.25
-0.71
-1.12
-1.19
-0.79
0.08
1.28
2.59
3.78
4.65
5.11
5.12
4.70
3.88
2.74
1.42
0.14
-0.88
-1.43
-1.45
-1.04
-0.44
0.06
0.26
0.13
-0.25
-0.63
-0.83
-0.69
-0.24
0.38
0.87
0.97
0.52
-0.46
-1.69
-2.78
-3.43
-3.58
-3.40
-3.24
-3.37
-3.88
-4.60
-5.18
-5.36
-5.04
-4.32
-3.44
-2.68
-2.20
-2.07
-2.22
-2.55
-2.94
-3.32
-3.62
-3.80
-3.80
-3.59
-3.17
-2.61
-2.05
-1.66
-1.59
-1.84
-2.31
-2.78
-3.02
-2.91
-2.52
-2.03
-1.66
-1.56
-1.75
-2.07
-2.37
-2.56
-2.66
-2.81
-3.15
-3.70
-4.36
-4.95
-5.33
-5.42
-5.24
-4.82
-4.22
-3.48
-2.66
-1.88
-1.30
-1.03
-1.14
-1.57
-2.13
-2.57
-2.64
-2.21
-1.31
-0.09
1.19
2.28
3.03
3.46
3.64
3.69
3.66
3.55
3.35
3.16
3.14
3.46
4.15
5.10
6.04
6.66
6.77
6.31
5.38
4.16
2.85
1.67
0.86
0.61
1.01
1.97
3.20
4.30
4.91
4.83
4.12
2.99
1.75
0.63
-0.24
-0.89
-1.46
-2.12
-3.02
-4.18
-5.49
-6.73
-7.64
-8.07
-7.99
-7.56
-7.01
-6.58
-6.40
-6.46
-6.61
-6.69
-6.56
-6.17
-5.54
-4.77
-3.94
-3.12
-2.37
-1.69
-1.10
-0.62
-0.25
0.01
0.18
0.34
0.52
0.83
1.34
2.17
3.38
4.93
6.67
8.37
9.79
10.80
11.41
11.75
12.05
12.43
12.88
13.28
13.43
13.17
12.54
11.71
10.93
10.40
10.12
9.98
9.74
9.25
8.49
7.59
6.76
6.13
5.73
5.45
5.12
4.58
3.77
2.74
1.61
0.53
-0.42
-1.27
-2.15
-3.23
-4.58
-6.11
-7.53
-8.54
-8.95
-8.83
-8.43
-7.99
-7.62
-7.22
-6.61
-5.66
-4.45
-3.22
-2.20
-1.52
-1.08
-0.71
-0.26
0.30
0.88
1.42
1.89
2.33
2.84
3.43
4.02
4.48
4.69
4.61
4.31
3.99
3.85
4.06
4.68
5.66
6.83
7.97
8.85
9.34
9.37
9.04
8.47
7.79
7.07
6.35
5.65
5.00
4.45
4.01
3.68
3.42
3.16
2.83
2.37
1.72
0.82
-0.34
-1.70
-3.09
-4.28
-5.02
-5.20
-4.91
-4.38
-3.89
-3.66
-3.77
-4.17
-4.76
-5.52
-6.42
-7.41
-8.40
-9.15
-9.41
-8.97
-7.78
-5.99
-3.92
-1.95
-0.41
0.55
0.93
0.90
0.71
0.59
0.70
1.10
1.73
2.47
3.19
3.78
4.17
4.35
4.34
4.21
4.03
3.93
4.01
4.32
4.83
5.44
6.01
6.38
6.49
6.32
5.95
5.45
4.91
4.38
3.95
3.71
3.68
3.82
4.00
4.05
3.83
3.31
2.56
1.73
0.96
0.28
-0.31
-0.89
-1.48
-2.04
-2.51
-2.88
-3.17
-3.48
-3.92
-4.49
-5.09
-5.60
-5.85
-5.78
-5.41
-4.82
-4.15
-3.50
-2.90
-2.34
-1.73
-0.98
-0.07
0.98
2.04
2.94
3.52
3.68
3.47
3.04
2.61
2.37
2.40
2.67
3.09
3.56
3.97
4.25
4.37
4.34
4.17
3.95
3.77
3.75
3.92
4.17
4.39
4.41
4.19
3.74
3.19
2.65
2.20
1.84
1.55
1.26
0.93
0.57
0.15
-0.31
-0.80
-1.28
-1.79
-2.34
-2.98
-3.74
-4.59
-5.48
-6.30
-6.92
-7.25
-7.21
-6.76
-5.95
-4.85
-3.62
-2.39
-1.31
-0.48
0.03
0.25
0.22
0.11
0.11
0.40
1.09
2.14
3.36
4.45
5.17
5.36
5.07
4.51
3.96
3.63
3.67
4.05
4.66
5.35
5.98
6.48
6.79
6.85
6.62
6.12
5.46
4.79
4.27
3.98
3.88
3.83
3.73
3.52
3.26
3.06
2.98
3.01
3.07
3.04
2.85
2.46
1.85
1.03
0.02
-1.12
-2.31
-3.45
-4.48
-5.38
-6.13
-6.76
-7.22
-7.44
-7.35
-6.88
-6.09
-5.11
-4.09
-3.16
-2.40
-1.79
-1.30
-0.91
-0.59
-0.33
-0.06
0.31
0.89
1.69
2.61
3.43
3.88
3.81
3.27
2.46
1.69
1.20
1.09
1.31
1.72
2.22
2.75
3.32
3.92
4.46
4.80
4.80
4.44
3.81
3.07
2.43
2.02
1.86
1.91
2.01
2.06
2.00
1.80
1.49
1.13
0.75
0.40
0.10
-0.13
-0.34
-0.57
-0.92
-1.45
-2.20
-3.18
-4.34
-5.57
-6.75
-7.73
-8.38
-8.64
-8.50
-8.05
-7.44
-6.77
-6.13
-5.53
-4.94
-4.35
-3.78
-3.27
-2.85
-2.52
-2.24
-1.92
-1.50
-0.96
-0.37
0.21
0.74
1.21
1.65
2.09
2.50
2.83
3.02
3.02
2.86
2.63
2.43
2.34
2.38
2.55
2.78
2.98
3.03
2.87
2.46
1.87
1.26
0.79
0.55
0.53
0.60
0.61
0.40
-0.08
-0.79
-1.61
-2.41
-3.05
-3.43
-3.53
-3.38
-3.12
-2.94
-3.00
-3.41
-4.09
-4.91
-5.70
-6.36
-6.90
-7.38
-7.83
-8.21
-8.36
-8.13
-7.47
-6.55
-5.62
-4.91
-4.51
-4.28
-4.00
-3.51
-2.78
-1.93
-1.10
-0.34
0.38
1.12
1.91
2.66
3.25
3.61
3.78
3.84
3.94
4.12
4.35
4.59
4.81
5.05
5.33
5.62
5.81
5.78
5.47
4.93
4.36
3.98
3.93
4.22
4.68
5.06
5.16
4.87
4.20
3.25
2.11
0.88
-0.35
-1.41
-2.15
-2.47
-2.39
-2.11
-1.90
-2.03
-2.60
-3.52
-4.58
-5.52
-6.15
-6.37
-6.18
-5.72
-5.11
-4.51
-3.99
-3.54
-3.10
-2.58
-1.93
-1.19
-0.43
0.30
0.96
1.59
2.18
2.70
3.08
3.24
3.14
2.87
2.51
2.23
2.15
2.35
2.82
3.48
4.17
4.75
5.10
5.22
5.23
5.24
5.36
5.58
5.83
5.99
6.02
5.92
5.70
5.42
5.06
4.61
4.10
3.58
3.16
2.95
2.99
3.22
3.49
3.62
3.47
2.99
2.25
1.37
0.50
-0.28
-0.97
-1.58
-2.15
-2.66
-3.07
-3.33
-3.46
-3.56
-3.71
-3.97
-4.32
-4.66
-4.84
-4.75
-4.34
-3.71
-2.97
-2.26
-1.68
-1.24
-0.87
-0.51
-0.11
0.33
0.75
1.11
1.40
1.64
1.84
1.99
2.07
2.04
1.94
1.88
1.95
2.23
2.67
3.22
3.76
4.19
4.45
4.53
4.41
4.11
3.69
3.23
2.84
2.57
2.44
2.41
2.40
2.32
2.14
1.89
1.59
1.27
0.85
0.25
-0.57
-1.59
-2.67
-3.61
-4.21
-4.41
-4.33
-4.19
-4.20
-4.46
-4.88
-5.31
-5.56
-5.58
-5.43
-5.28
-5.31
-5.62
-6.16
-6.77
-7.24
-7.41
-7.22
-6.76
-6.15
-5.50
-4.88
-4.29
-3.74
-3.24
-2.84
-2.57
-2.44
-2.38
-2.30
-2.13
-1.81
-1.36
-0.84
-0.31
0.16
0.51
0.71
0.74
0.62
0.41
0.18
0.04
0.04
0.25
0.64
1.18
1.75
2.25
2.56
2.60
2.38
1.98
1.57
1.29
1.25
1.41
1.64
1.72
1.54
1.14
0.66
0.32
0.23
0.35
0.51
0.53
0.25
-0.37
-1.25
-2.27
-3.29
-4.14
-4.69
-4.86
-4.71
-4.37
-4.07
-4.00
-4.24
-4.68
-5.12
-5.32
-5.15
-4.58
-3.72
-2.72
-1.80
-1.12
-0.82
-0.89
-1.24
-1.66
-1.91
-1.80
-1.32
-0.64
-0.06
0.18
-0.05
-0.66
-1.41
-2.06
-2.42
-2.45
-2.15
-1.56
-0.66
0.46
1.66
2.68
3.24
3.16
2.51
1.52
0.51
-0.29
-0.78
-0.99
-1.02
-0.93
-0.77
-0.56
-0.33
-0.15
-0.00
0.15
0.35
0.62
0.86
0.92
0.67
0.10
-0.68
-1.51
-2.23
-2.76
-3.13
-3.38
-3.57
-3.69
-3.72
-3.59
-3.29
-2.79
-2.14
-1.42
-0.76
-0.26
0.02
0.11
0.09
0.09
0.19
0.41
0.72
1.04
1.33
1.58
1.81
2.08
2.40
2.76
3.13
3.48
3.81
4.14
4.49
4.86
5.19
5.35
5.29
5.01
4.66
4.42
4.44
4.68
4.90
4.82
4.21
3.09
1.75
0.55
-0.19
-0.40
-0.24
0.02
0.12
-0.05
-0.43
-0.96
-1.57
-2.29
-3.18
-4.26
-5.51
-6.84
-8.17
-9.42
-10.51
-11.38
-11.94
-12.15
-11.99
-11.54
-10.91
-10.22
-9.64
-9.28
-9.29
-9.74
-10.58
-11.69
-12.81
-13.70
-14.24
-14.49
-14.70
-15.19
-16.21
-17.78
-19.59
-21.07
-21.55
-20.47
-17.67
-13.43
-8.46
-3.61
0.39
3.29
5.34
7.13
9.33
12.32
15.99
19.81
23.01
24.91
25.10
23.64
21.05
18.33
16.74
17.44
21.15
27.73
36.07
44.40
50.86
54.12
53.77
50.33
44.84
38.42
31.94
25.97
20.84
16.79
13.96
12.27
11.41
10.87
10.11
8.76
6.77
4.42
2.13
0.34
-0.76
-1.27
-1.54
-2.02
-2.97
-4.41
-6.07
-7.55
-8.47
-8.64
-8.11
-7.06
-5.79
-4.55
-3.51
-2.78
-2.43
-2.49
-2.95
-3.77
-4.84
-5.94
-6.80
-7.18
-7.00
-6.36
-5.56
-4.96
-4.85
-5.32
-6.26
-7.44
-8.57
-9.47
-10.07
-10.39
-10.49
-10.45
-10.36
-10.29
-10.22
-10.16
-10.08
-10.04
-10.14
-10.47
-11.08
-11.87
-12.65
-13.21
-13.44
-13.39
-13.24
-13.21
-13.37
-13.65
-13.87
-13.80
-13.36
-12.58
-11.63
-10.68
-9.88
-9.25
-8.79
-8.48
-8.35
-8.45
-8.83
-9.46
-10.20
-10.88
-11.37
-11.60
-11.66
-11.76
-12.14
-13.01
-14.50
-16.59
-19.04
-21.50
-23.56
-24.92
-25.67
-26.23
-27.36
-29.73
-33.63
-38.77
-44.41
-49.75
-54.39
-58.53
-62.78
-67.57
-72.93
-78.19
-82.26
-83.95
-82.15
-75.58
-62.61
-41.51
-11.30
27.21
70.89
114.81
153.93
184.95
207.22
222.31
232.42
238.71
240.77
237.32
227.69
212.85
195.27
177.71
161.79
147.41
133.30
118.24
102.25
86.78
73.95
65.62
62.32
63.13
66.20
69.52
71.61
71.89
70.64
68.68
67.13
66.82
67.90
69.54
69.95
66.94
58.96
46.06
30.42
15.83
6.37
4.81
11.55
24.68
40.99
57.39
71.84
83.57
92.40
98.03
99.68
96.28
87.18
72.53
53.13
29.71
2.60
-27.71
-58.99
-85.99
-100.93
-96.23
-68.54
-21.68
33.43
82.49
113.28
120.11
104.98
74.99
38.14
-0.15
-37.99
-75.48
-112.74
-148.70
-181.87
-211.95
-241.11
-274.00
-316.17
-371.49
-439.64
-515.00
-587.54
-645.87
-681.20
-690.48
-677.29
-649.98
-617.98
-588.16
-563.04
-541.33
-520.14
-497.29
-472.36
-446.36
-420.35
-394.46
-367.60
-338.23
-305.36
-269.11
-230.76
-192.12
-154.77
-119.45
-86.11
-54.17
-23.15
6.99
35.78
62.52
86.77
108.63
128.74
147.97
167.03
186.19
205.22
223.67
241.27
258.10
274.79
292.39
312.12
334.92
360.86
388.66
415.61
438.17
453.22
459.42
458.15
453.38
450.43
454.12
467.18
489.42
518.04
548.54
575.79
595.00
602.44
595.99
575.54
543.05
502.00
456.38
409.53
363.41
318.44
274.13
229.78
184.99
139.57
93.42
46.57
-0.38
-45.72
-86.72
-120.64
-146.23
-164.64
-179.00
-192.51
-206.29
-218.47
-225.17
-222.97
-211.12
-192.07
-170.11
-149.03
-130.40
-113.64
-97.53
-81.95
-68.58
-60.00
-58.31
-63.88
-75.32
-90.32
-106.50
-122.05
-135.59
-146.08
-153.01
-156.71
-158.55
-160.72
-165.39
-173.63
-184.98
-197.53
-208.84
-217.05
-221.64
-223.39
-224.02
-225.45
-229.21
-236.49
-248.17
-265.06
-287.58
-314.85
-343.82
-369.13
-384.46
-384.95
-369.72
-342.58
-310.56
-280.43
-255.48
-234.15
-211.44
-182.24
-144.29
-99.24
-51.01
-3.19
43.19
89.82
139.51
193.99
252.95
314.33
375.55
434.51
489.63
539.26
581.46
614.27
636.66
649.28
654.07
652.99
646.61
633.55
611.50
578.93
536.61
487.63
436.13
385.36
336.64
289.60
243.45
198.27
155.29
116.07
81.44
50.51
20.78
-10.91
-47.00
-88.14
-132.67
-176.88
-216.15
-246.22
-264.44
-270.38
-265.79
-253.93
-238.58
-223.16
-210.08
-200.51
-194.43
-190.98
-189.02
-187.85
-187.79
-190.32
-197.49
-210.72
-229.97
-253.59
-279.34
-305.58
-331.76
-357.68
-382.03
-401.25
-409.86
-402.53
-376.62
-333.92
-280.32
-223.50
-170.01
-123.31
-83.62
-49.30
-18.82
8.09
30.50
47.19
57.80
63.33
66.01
68.33
72.07
77.67
84.22
90.05
93.66
94.37
92.58
89.46
86.27
83.79
82.03
80.37
78.02
74.46
69.72
64.36
59.14
54.69
51.23
48.53
46.04
43.27
39.97
36.23
32.43
28.97
26.08
23.77
21.78
19.81
17.64
15.22
12.66
10.20
8.07
6.44
5.35
4.80
4.69
4.93
5.40
6.01
6.64
7.13
7.37
7.22
6.62
5.53
4.05
2.36
0.73
-0.50
-1.10
-1.00
-0.38
0.43
1.06
1.28
1.03
0.46
-0.22
-0.80
-1.17
-1.28
-1.15
-0.80
-0.27
0.35
0.99
1.56
2.04
2.44
2.87
3.40
4.09
4.92
5.86
6.81
7.69
8.41
8.87
9.00
8.73
8.08
7.13
6.06
5.05
4.29
3.82
3.62
3.56
3.53
3.46
3.34
3.22
3.14
3.11
3.10
3.07
2.97
2.76
2.44
2.02
1.47
0.80
0.02
-0.81
-1.59
-2.22
-2.65
-2.89
-3.02
-3.18
-3.50
-4.05
-4.84
-5.77
-6.71
-7.46
-7.86
-7.78
-7.18
-6.18
-4.95
-3.72
-2.65
-1.82
-1.22
-0.80
-0.48
-0.23
-0.02
0.19
0.45
0.79
1.21
1.64
1.97
2.14
2.17
2.24
2.54
3.19
4.16
5.27
6.23
6.77
6.82
6.51
6.11
5.92
6.09
6.55
7.07
7.39
7.36
6.99
6.48
6.03
5.73
5.58
5.48
5.32
5.04
4.66
4.24
3.78
3.29
2.78
2.25
1.71
1.12
0.46
-0.28
-1.03
-1.66
-2.04
-2.13
-2.04
-1.99
-2.16
-2.65
-3.41
-4.28
-5.07
-5.64
-5.92
-5.92
-5.62
-5.09
-4.38
-3.58
-2.76
-1.93
-1.11
-0.32
0.35
0.81
0.98
0.92
0.78
0.75
0.95
1.40
1.98
2.56
3.07
3.48
3.84
4.16
4.46
4.74
5.02
5.34
5.69
6.01
6.18
6.12
5.83
5.40
4.99
4.71
4.55
4.44
4.28
4.04
3.75
3.47
3.26
3.15
3.09
3.05
2.97
2.80
2.46
1.90
1.11
0.13
-0.92
-1.92
-2.75
-3.34
-3.63
-3.57
-3.13
-2.41
-1.63
-1.14
-1.26
-2.12
-3.56
-5.18
-6.44
-6.89
-6.39
-5.08
-3.33
-1.55
-0.02
1.17
2.10
2.85
3.49
3.97
4.26
4.33
4.22
4.03
3.81
3.59
3.32
2.98
2.55
2.07
1.60
1.20
0.88
0.68
0.60
0.63
0.75
0.92
1.08
1.20
1.31
1.42
1.60
1.86
2.17
2.45
2.65
2.72
2.64
2.46
2.26
2.10
2.03
2.07
2.15
2.22
2.22
2.16
2.07
1.98
1.89
1.74
1.48
1.04
0.44
-0.26
-0.98
-1.66
-2.30
-2.96
-3.71
-4.56
-5.42
-6.09
-6.37
-6.11
-5.34
-4.23
-3.04
-2.02
-1.31
-0.93
-0.79
-0.78
-0.78
-0.73
-0.58
-0.29
0.15
0.76
1.49
2.25
2.93
3.45
3.75
3.85
3.78
3.66
3.59
3.67
3.95
4.37
4.80
5.07
5.04
4.67
4.04
3.33
2.74
2.40
2.34
2.49
2.74
3.00
3.25
3.49
3.75
3.98
4.08
3.95
3.55
3.00
2.52
2.38
2.72
3.46
4.31
4.89
4.91
4.38
3.55
2.83
2.56
2.88
3.68
4.66
5.52
6.16
6.70
7.55
9.22
12.15
16.45
21.79
27.42
32.28
35.34
35.77
33.09
27.31
18.98
9.29
-0.06
-7.18
-10.66
-10.15
-6.67
-2.23
0.98
1.54
-0.62
-4.50
-8.80
-12.76
-16.57
-21.03
-26.73
-33.43
-39.95
-44.71
-46.61
-45.53
-42.39
-38.59
-35.25
-32.72
-30.61
-28.25
-25.20
-21.64
-18.23
-15.75
-14.58
-14.51
-14.85
-14.80
-13.85
-11.98
-9.63
-7.39
-5.66
-4.51
-3.64
-2.65
-1.25
0.53
2.44
4.08
5.15
5.61
5.65
5.56
5.59
5.80
6.12
6.37
6.47
6.43
6.34
6.29
6.32
6.40
6.52
6.68
6.91
7.17
7.40
7.47
7.33
7.01
6.64
6.31
6.02
5.66
5.13
4.38
3.49
2.60
1.79
1.09
0.41
-0.34
-1.17
-2.02
-2.83
-3.58
-4.30
-5.03
-5.75
-6.37
-6.75
-6.82
-6.65
-6.38
-6.14
-6.02
-5.91
-5.65
-5.10
-4.31
-3.50
-3.01
-3.07
-3.75
-4.82
-5.92
-6.68
-6.95
-6.81
-6.64
-6.88
-7.85
-9.56
-11.71
-13.80
-15.38
-16.32
-16.89
-17.62
-19.06
-21.52
-24.97
-29.17
-33.79
-38.57
-43.32
-47.77
-51.50
-54.10
-55.40
-55.82
-56.25
-57.72
-60.75
-64.99
-69.22
-71.95
-72.17
-69.87
-66.08
-62.17
-59.08
-56.70
-53.94
-49.50
-42.74
-34.29
-25.88
-19.73
-17.58
-20.15
-26.93
-36.51
-47.03
-56.64
-63.66
-66.54
-63.99
-54.98
-39.16
-17.14
9.35
37.70
65.00
88.85
107.96
122.44
133.47
142.48
150.38
157.00
161.42
162.55
159.92
153.96
145.79
136.63
127.34
118.20
109.23
100.46
92.21
84.91
78.83
73.76
69.06
63.89
57.73
50.73
43.81
38.34
35.60
36.31
40.28
46.49
53.52
59.93
64.70
67.17
66.98
63.95
58.26
50.79
43.19
37.53
35.37
36.99
41.14
45.56
48.09
47.62
44.37
39.39
33.73
27.68
20.83
12.49
2.28
-9.48
-21.94
-33.89
-44.18
-51.88
-56.51
-58.21
-57.76
-56.22
-54.39
-52.43
-49.86
-46.17
-41.44
-36.66
-33.26
-32.14
-32.72
-32.71
-29.20
-20.36
-7.09
6.68
15.53
15.21
5.08
-11.03
-26.25
-33.63
-29.18
-13.55
8.34
29.21
41.81
40.88
24.25
-6.89
-48.09
-92.34
-131.36
-157.64
-166.46
-157.31
-133.74
-101.81
-67.93
-37.16
-12.50
4.84
14.76
17.99
15.94
10.87
5.51
2.46
3.28
8.02
15.32
23.01
29.05
32.17
32.11
29.50
25.35
20.64
16.07
12.03
8.72
6.31
4.75
3.44
0.76
-5.65
-17.91
-36.32
-58.18
-77.87
-88.61
-85.27
-66.72
-36.86
-3.56
23.92
37.86
34.54
15.11
-14.98
-47.81
-75.51
-92.30
-95.53
-85.72
-66.03
-41.23
-16.64
3.09
15.06
19.14
18.08
16.55
19.27
28.95
45.16
64.91
84.30
100.54
112.69
121.16
126.43
128.30
126.08
119.57
109.83
99.01
89.39
82.24
77.33
73.16
67.95
60.78
52.17
43.77
37.55
34.82
35.50
38.22
40.87
41.49
39.03
33.59
26.19
18.15
10.50
3.59
-2.84
-9.31
-16.14
-23.16
-29.79
-35.28
-39.13
-41.25
-42.03
-42.09
-42.02
-42.12
-42.38
-42.54
-42.29
-41.43
-40.03
-38.33
-36.63
-35.19
-34.09
-33.27
-32.65
-32.11
-31.67
-31.38
-31.25
-31.24
-31.16
-30.77
-29.89
-28.50
-26.83
-25.32
-24.47
-24.60
-25.77
-27.63
-29.58
-30.97
-31.29
-30.42
-28.56
-26.16
-23.72
-21.69
-20.41
-20.05
-20.65
-22.07
-23.92
-25.45
-25.68
-23.57
-18.42
-10.15
0.43
11.88
22.60
31.34
37.59
41.49
43.46
43.84
42.72
40.10
36.22
31.70
27.48
24.37
22.68
22.05
21.70
20.88
19.19
16.71
13.82
10.90
8.09
5.33
2.51
-0.37
-3.16
-5.57
-7.34
-8.33
-8.54
-8.17
-7.52
-7.00
-6.97
-7.66
-9.08
-11.01
-13.04
-14.72
-15.64
-15.43
-13.84
-10.74
-6.15
-0.39
6.00
12.31
17.87
22.25
25.31
27.21
28.23
28.66
28.68
28.39
27.81
26.88
25.53
23.71
21.48
19.01
16.56
14.27
12.07
9.58
6.32
1.91
-3.60
-9.66
-15.42
-20.05
-23.13
-24.72
-25.33
-25.61
-26.13
-27.15
-28.61
-30.10
-31.25
-31.86
-32.18
-32.85
-34.61
-37.85
-42.27
-46.90
-50.41
-51.65
-49.93
-45.12
-37.41
-27.16
-14.96
-1.81
10.81
21.28
28.52
32.70
35.21
37.72
41.01
44.09
44.71
40.78
32.06
20.77
10.63
4.86
4.31
7.17
10.20
10.80
8.29
3.74
-1.53
-7.37
-15.02
-25.92
-39.94
-54.58
-65.70
-69.50
-64.54
-52.50
-37.34
-23.42
-13.66
-8.75
-7.54
-8.15
-9.00
-9.25
-8.75
-7.58
-5.77
-3.26
-0.05
3.59
7.11
9.83
11.27
11.32
10.36
9.05
7.98
7.43
7.28
7.14
6.58
5.45
3.89
2.20
0.69
-0.45
-1.07
-1.02
-0.11
1.73
4.33
7.18
9.60
11.04
11.31
10.60
9.23
7.48
5.42
3.06
0.51
-1.88
-3.65
-4.43
-4.16
-3.14
-1.82
-0.66
0.06
0.22
-0.14
-0.91
-1.90
-2.91
-3.74
-4.32
-4.74
-5.27
-6.22
-7.80
-9.92
-12.15
-13.81
-14.25
-13.16
-10.85
-8.14
-6.03
-5.14
-5.32
-5.63
-4.77
-1.72
3.82
11.25
19.38
26.81
32.38
35.49
36.20
35.21
33.64
32.62
32.94
34.71
37.20
38.81
37.38
30.80
17.85
-0.91
-22.70
-43.04
-57.12
-61.75
-56.75
-45.15
-31.91
-21.76
-17.40
-18.68
-23.31
-28.32
-31.50
-32.25
-31.59
-31.66
-34.84
-42.63
-54.67
-68.22
-78.69
-81.13
-72.26
-52.00
-23.77
6.49
32.04
47.22
49.01
37.83
17.61
-5.10
-22.86
-29.62
-22.63
-3.47
22.39
47.41
64.34
68.62
59.68
40.91
18.48
-0.76
-11.39
-11.01
-0.64
16.05
34.35
50.19
61.07
66.04
65.23
59.29
49.26
36.66
23.46
11.77
3.20
-1.59
-2.93
-1.88
0.18
2.03
2.84
2.06
-0.79
-6.31
-15.09
-27.21
-41.63
-55.93
-66.76
-71.05
-67.33
-56.49
-41.43
-25.75
-12.17
-1.62
6.55
13.48
19.60
24.09
25.50
22.86
16.75
9.34
3.58
1.84
4.81
11.21
18.55
24.29
26.98
26.66
24.50
22.10
20.75
21.08
23.00
25.79
27.95
27.19
20.77
6.51
-15.77
-43.27
-70.66
-91.83
-102.55
-102.37
-94.59
-84.36
-76.09
-71.75
-71.19
-73.54
-78.52
-86.27
-95.91
-104.21
-105.84
-95.41
-70.39
-32.83
11.20
54.15
89.67
114.18
126.58
127.16
117.04
98.54
75.85
54.80
41.27
38.87
47.13
61.52
75.11
81.44
77.07
62.66
42.47
22.49
8.15
2.45
5.34
14.25
25.59
36.38
45.23
52.22
58.01
62.80
65.92
66.28
63.44
58.16
52.34
48.09
46.69
47.98
50.42
51.85
50.44
45.40
37.14
26.98
16.61
7.37
-0.13
-6.01
-10.89
-15.37
-19.72
-23.78
-27.14
-29.46
-30.67
-31.03
-31.04
-31.10
-31.42
-31.96
-32.47
-32.71
-32.48
-31.82
-30.85
-29.80
-28.78
-27.83
-26.80
-25.52
-23.84
-21.73
-19.33
-16.83
-14.47
-12.46
-10.94
-9.98
-9.65
-9.88
-10.58
-11.56
-12.59
-13.51
-14.27
-14.87
-15.35
-15.69
-15.80
-15.56
-14.86
-13.69
-12.20
-10.61
-9.14
-7.95
-7.03
-6.23
-5.31
-4.11
-2.59
-0.94
0.55
1.61
2.13
2.28
2.44
2.98
4.24
6.39
9.47
13.46
18.22
23.41
28.32
31.95
33.15
31.18
26.09
18.84
10.91
3.67
-2.32
-7.49
-12.73
-18.77
-25.46
-31.81
-36.59
-39.05
-39.53
-39.23
-39.56
-41.24
-43.89
-46.23
-46.89
-45.15
-41.36
-36.70
-32.55
-29.81
-28.49
-27.86
-26.90
-24.84
-21.43
-16.81
-11.17
-4.57
2.95
10.90
17.99
22.29
21.86
15.94
5.53
-6.62
-16.97
-22.60
-22.37
-17.11
-9.00
-0.39
7.08
12.85
17.12
20.16
21.90
21.87
19.63
15.34
9.97
5.16
2.63
3.44
7.37
13.07
18.63
22.47
24.00
23.79
22.95
22.36
22.10
21.58
20.11
17.69
15.21
14.00
15.04
18.19
22.23
25.34
26.07
23.85
19.15
12.98
6.47
0.51
-4.28
-7.42
-8.59
-7.76
-5.34
-2.29
0.23
1.23
0.31
-2.21
-5.40
-8.16
-9.57
-9.17
-7.04
-3.61
0.54
4.90
9.14
13.06
16.53
19.41
21.58
22.94
23.58
23.68
23.49
23.09
22.40
21.14
19.05
16.13
12.73
9.49
7.08
5.96
6.16
7.37
9.04
10.66
11.88
12.54
12.67
12.36
11.70
10.75
9.59
8.24
6.79
5.37
4.15
3.30
2.89
2.84
2.94
2.89
2.43
1.43
-0.02
-1.73
-3.44
-4.95
-6.20
-7.25
-8.16
-8.99
-9.78
-10.56
-11.41
-12.38
-13.49
-14.65
-15.68
-16.38
-16.62
-16.37
-15.72
-14.82
-13.76
-12.64
-11.57
-10.62
-9.93
-9.50
-9.27
-9.03
-8.55
-7.63
-6.23
-4.44
-2.54
-0.84
0.36
0.90
0.79
0.21
-0.49
-0.93
-0.87
-0.27
0.70
1.74
2.58
3.08
3.32
3.46
3.66
3.95
4.21
4.24
3.96
3.46
3.04
3.03
3.66
4.87
6.33
7.58
8.19
7.95
6.93
5.47
4.06
3.19
3.17
4.02
5.53
7.24
8.66
9.30
8.81
6.87
3.36
-1.70
-8.01
-14.92
-21.57
-27.02
-30.54
-31.85
-31.06
-28.55
-24.80
-20.24
-15.31
-10.57
-6.64
-4.11
-3.23
-3.79
-5.09
-6.29
-6.72
-6.15
-4.82
-3.24
-1.90
-1.05
-0.67
-0.54
-0.48
-0.39
-0.25
-0.08
0.18
0.60
1.30
2.32
3.56
4.82
5.86
6.49
6.64
6.40
5.96
5.57
5.40
5.55
5.94
6.39
6.67
6.62
6.18
5.46
4.67
4.06
3.80
3.91
4.24
4.56
4.61
4.29
3.64
2.88
2.28
2.01
2.05
2.27
2.56
2.87
3.15
3.21
2.63
0.93
-2.10
-6.14
-10.32
-13.54
-15.09
-14.92
-13.75
-12.51
-11.89
-11.87
-11.90
-11.28
-9.73
-7.55
-5.50
-4.26
-4.08
-4.67
-5.40
-5.71
-5.40
-4.64
-3.82
-3.21
-2.77
-2.20
-1.15
0.51
2.63
4.87
6.93
8.73
10.35
11.93
13.42
14.58
15.00
14.40
12.74
10.43
8.12
6.52
6.11
6.91
8.50
10.22
11.41
11.70
11.10
9.91
8.47
6.97
5.33
3.29
0.65
-2.52
-5.90
-8.95
-11.17
-12.32
-12.50
-12.10
-11.59
-11.31
-11.32
-11.39
-11.22
-10.52
-9.27
-7.65
-5.97
-4.52
-3.44
-2.72
-2.29
-2.11
-2.16
-2.43
-2.79
-2.96
-2.65
-1.68
-0.15
1.58
3.02
3.72
3.50
2.53
1.23
0.05
-0.62
-0.65
-0.10
0.80
1.84
2.80
3.56
4.06
4.30
4.35
4.30
4.23
4.23
4.31
4.43
4.54
4.62
4.69
4.78
4.91
5.00
4.91
4.57
3.99
3.32
2.79
2.55
2.59
2.74
2.70
2.30
1.48
0.38
-0.78
-1.86
-2.79
-3.61
-4.35
-4.96
-5.40
-5.68
-5.89
-6.22
-6.81
-7.60
-8.36
-8.73
-8.42
-7.37
-5.72
-3.80
-1.91
-0.31
0.87
1.57
1.77
1.51
0.87
0.03
-0.79
-1.35
-1.44
-1.04
-0.24
0.67
1.41
1.78
1.83
1.86
2.19
3.03
4.30
5.62
6.56
6.83
6.41
5.54
4.51
3.51
2.59
1.74
0.99
0.47
0.34
0.64
1.26
1.96
2.44
2.50
2.08
1.30
0.34
-0.59
-1.30
-1.69
-1.74
-1.57
-1.43
-1.53
-1.94
-2.54
-3.05
-3.27
-3.20
-3.09
-3.29
-4.03
-5.22
-6.54
-7.55
-8.00
-7.93
-7.60
-7.29
-7.06
-6.74
-6.06
-4.86
-3.24
-1.54
-0.17
0.58
0.70
0.44
0.16
0.16
0.53
1.14
1.76
2.18
2.29
2.17
1.99
1.88
1.95
2.24
2.70
3.26
3.87
4.45
4.97
5.37
5.62
5.62
5.32
4.69
3.79
2.82
2.02
1.68
1.91
2.61
3.45
4.00
3.95
3.29
2.32
1.47
1.08
1.20
1.59
1.88
1.79
1.32
0.67
0.08
-0.31
-0.58
-0.93
-1.49
-2.26
-3.12
-3.98
-4.80
-5.63
-6.49
-7.29
-7.82
-7.93
-7.57
-6.92
-6.24
-5.78
-5.60
-5.54
-5.39
-4.93
-4.08
-2.92
-1.67
-0.61
0.01
0.10
-0.22
-0.64
-0.78
-0.39
0.55
1.88
3.34
4.71
5.92
6.95
7.76
8.24
8.32
8.04
7.67
7.59
8.09
9.22
10.67
11.92
12.51
12.23
11.29
10.25
9.76
10.29
11.94
14.30
16.64
18.13
18.13
16.40
13.18
9.16
5.28
2.53
1.62
2.56
4.65
6.57
6.96
5.00
0.83
-4.60
-10.03
-14.48
-17.57
-19.41
-20.20
-20.02
-18.81
-16.75
-14.39
-12.56
-11.90
-12.38
-13.24
-13.41
-12.09
-9.31
-5.83
-2.77
-0.95
-0.58
-1.29
-2.44
-3.52
-4.20
-4.40
-4.09
-3.39
-2.71
-2.75
-4.35
-7.98
-13.40
-19.59
-25.25
-29.50
-32.31
-34.45
-36.77
-39.40
-41.39
-41.12
-37.23
-29.50
-19.08
-7.88
2.29
10.55
16.93
21.94
25.83
28.34
28.87
27.05
23.21
18.49
14.42
12.26
12.47
14.60
17.52
19.97
21.11
20.77
19.39
17.79
16.72
16.52
16.98
17.39
17.00
15.28
12.20
8.20
3.95
-0.06
-3.67
-7.12
-10.80
-14.98
-19.68
-24.71
-29.80
-34.81
-39.71
-44.53
-49.18
-53.45
-57.09
-59.99
-62.44
-65.06
-68.57
-73.49
-79.77
-86.63
-92.65
-96.09
-95.14
-88.32
-74.80
-54.53
-28.45
1.63
33.17
63.32
89.30
108.87
120.62
124.19
120.19
110.11
95.95
79.89
63.84
49.22
36.74
26.55
18.50
12.34
7.84
4.87
3.19
2.44
2.19
2.08
1.91
1.68
1.40
0.90
-0.11
-2.01
-4.85
-8.31
-11.71
-14.25
-15.30
-14.44
-11.39
-5.84
2.50
13.77
27.67
43.37
59.61
74.92
87.91
97.36
102.43
102.65
98.25
90.13
79.85
69.20
59.71
52.26
46.97
43.47
41.13
39.42
37.89
36.28
34.44
32.48
30.71
29.58
29.48
30.45
32.17
33.97
35.22
35.58
35.10
34.19
33.29
32.58
31.83
30.47
27.77
22.98
15.43
4.52
-10.24
-28.98
-51.03
-74.70
-97.32
-115.94
-128.33
-133.71
-133.00
-128.16
-121.32
-113.88
-106.26
-98.28
-89.68
-80.53
-71.21
-62.08
-53.20
-44.30
-35.07
-25.51
-16.14
-7.85
-1.49
2.38
3.73
3.10
1.34
-0.54
-1.70
-1.60
-0.21
2.11
4.83
7.50
9.96
12.40
15.06
18.08
21.30
24.31
26.63
27.97
28.29
27.80
26.87
25.87
25.08
24.59
24.35
24.07
23.37
21.83
19.23
15.59
11.23
6.64
2.30
-1.48
-4.61
-7.13
-9.17
-10.77
-11.91
-12.49
-12.41
-11.64
-10.29
-8.61
-6.89
-5.39
-4.24
-3.46
-3.02
-2.91
-3.10
-3.57
-4.24
-4.93
-5.46
-5.71
-5.67
-5.49
-5.33
-5.32
-5.49
-5.85
-6.34
-6.87
-7.34
-7.61
-7.54
-7.08
-6.36
-5.61
-5.13
-5.09
-5.45
-6.00
-6.46
-6.59
-6.34
-5.82
-5.27
-4.91
-4.83
-5.01
-5.27
-5.44
-5.37
-5.05
-4.58
-4.10
-3.76
-3.65
-3.87
-4.46
-5.44
-6.74
-8.18
-9.54
-10.65
-11.52
-12.33
-13.36
-14.69
-16.12
-17.20
-17.47
-16.80
-15.56
-14.51
-14.45
-15.88
-18.64
-22.03
-25.10
-27.11
-28.00
-28.40
-29.42
-32.11
-36.90
-43.29
-50.07
-55.75
-59.33
-60.72
-60.87
-61.41
-64.13
-70.41
-80.71
-94.18
-108.39
-119.40
-122.43
-113.06
-88.88
-50.68
-2.77
48.17
95.13
132.87
159.17
174.70
181.78
183.03
180.38
174.96
167.55
158.97
150.14
141.78
134.13
126.82
119.15
110.62
101.30
91.88
83.40
76.77
72.40
70.06
68.93
67.94
66.13
63.01
58.88
54.67
51.57
50.35
50.69
50.93
48.38
40.14
24.20
0.31
-29.75
-62.58
-94.22
-121.24
-141.51
-154.35
-160.23
-160.25
-155.72
-148.06
-138.88
-129.96
-123.03
-119.39
-119.51
-122.78
-127.83
-133.11
-137.40
-140.30
-141.95
-142.72
-142.59
-140.84
-136.01
-126.27
-109.96
-86.14
-55.01
-18.02
22.41
63.36
101.97
136.01
163.99
185.15
199.30
206.76
208.30
205.18
198.83
190.40
180.25
167.98
152.91
134.91
115.04
95.50
78.78
66.38
57.98
51.29
43.15
30.94
13.90
-6.64
-27.80
-46.52
-60.58
-69.29
-73.30
-74.06
-73.11
-71.77
-70.90
-71.01
-72.06
-73.26
-73.02
-69.07
-59.21
-42.29
-18.98
8.02
34.64
56.66
71.00
76.55
74.43
67.35
58.49
50.42
44.35
40.01
36.10
31.18
24.45
16.05
6.91
-1.80
-9.19
-14.89
-18.98
-21.59
-22.68
-22.06
-19.63
-15.64
-10.76
-5.88
-1.78
1.18
3.12
4.53
5.98
7.81
10.03
12.25
13.89
14.32
13.05
9.94
5.19
-0.69
-7.03
-13.21
-18.84
-23.81
-28.22
-32.17
-35.64
-38.40
-40.13
-40.53
-39.46
-37.04
-33.51
-29.21
-24.47
-19.58
-14.76
-10.22
-6.10
-2.53
0.40
2.62
4.09
4.87
5.12
5.16
5.42
6.37
8.30
11.21
14.71
18.15
20.81
22.21
22.28
21.39
20.17
19.16
18.59
18.27
17.83
16.94
15.57
14.01
12.69
11.94
11.84
12.19
12.63
12.89
12.81
12.41
11.72
10.72
9.32
7.45
5.16
2.75
0.63
-0.82
-1.39
-1.13
-0.33
0.67
1.52
2.00
1.96
1.31
-0.01
-1.95
-4.33
-6.84
-9.14
-10.94
-12.16
-12.89
-13.37
-13.93
-14.79
-16.10
-17.78
-19.65
-21.44
-22.93
-23.98
-24.62
-25.00
-25.32
-25.81
-26.66
-27.96
-29.71
-31.84
-34.20
-36.61
-38.91
-40.93
-42.54
-43.60
-43.91
-43.39
-42.03
-40.02
-37.65
-35.27
-33.15
-31.35
-29.82
-28.38
-26.87
-25.23
-23.43
-21.51
-19.47
-17.34
-15.14
-12.88
-10.56
-8.14
-5.56
-2.80
0.09
2.93
5.49
7.56
9.06
10.09
10.85
11.49
11.97
12.05
11.44
10.01
7.89
5.50
3.35
1.80
0.92
0.56
0.46
0.46
0.59
0.98
1.69
2.64
3.58
4.28
4.68
4.95
5.38
6.18
7.32
8.46
9.20
9.24
8.53
7.22
5.52
3.50
1.08
-1.86
-5.25
-8.79
-11.98
-14.38
-15.80
-16.35
-16.31
-15.93
-15.30
-14.34
-13.01
-11.45
-10.03
-9.16
-9.13
-9.84
-10.88
-11.64
-11.55
-10.36
-8.11
-5.17
-1.95
1.20
4.09
6.72
9.28
11.96
14.94
18.28
21.88
25.50
28.88
31.87
34.55
37.20
40.27
44.15
49.07
54.98
61.65
68.79
76.13
83.46
90.53
97.04
102.59
106.84
109.63
110.94
110.77
108.88
104.71
97.42
86.33
71.14
52.15
30.19
6.38
-18.25
-42.79
-66.38
-87.84
-105.60
-118.04
-124.03
-123.46
-117.03
-105.76
-90.13
-69.53
-42.25
-6.08
40.65
97.98
163.54
232.35
297.40
350.94
386.26
399.48
390.61
363.51
324.55
280.55
236.62
195.32
156.67
119.34
81.88
43.64
4.80
-33.75
-71.01
-106.35
-139.71
-171.88
-204.70
-241.17
-284.43
-336.23
-394.86
-454.23
-504.57
-535.16
-537.94
-510.08
-454.89
-380.79
-299.16
-221.84
-158.65
-115.17
-91.65
-83.79
-85.03
-89.68
-95.02
-101.43
-110.38
-122.22
-135.08
-145.63
-151.18
-151.12
-146.94
-140.96
-135.01
-130.12
-126.91
-126.10
-128.00
-131.61
-134.28
-133.15
-127.16
-118.62
-112.69
-115.02
-128.73
-152.64
-181.58
-208.47
-227.13
-234.01
-228.82
-213.60
-191.36
-164.64
-134.98
-103.16
-69.74
-35.64
-2.41
28.26
55.30
78.83
100.27
121.83
145.60
172.83
203.92
238.68
276.63
316.87
357.44
394.88
424.41
441.21
442.11
426.91
398.58
362.06
322.56
283.89
248.03
215.47
186.19
160.27
137.94
119.23
103.57
89.92
77.04
64.04
50.64
37.18
24.48
13.43
4.79
-1.06
-4.23
-5.34
-5.34
-5.27
-5.94
-7.69
-10.28
-13.04
-15.06
-15.49
-13.77
-9.76
-3.77
3.70
12.07
21.01
30.43
40.53
51.67
64.14
78.03
93.18
109.07
124.89
139.64
152.40
162.64
170.41
176.18
180.41
183.06
183.50
180.65
173.57
161.90
145.88
126.12
103.21
77.58
49.62
20.02
-10.15
-39.47
-66.69
-90.98
-112.05
-129.96
-144.87
-156.88
-166.15
-172.94
-177.68
-180.70
-182.13
-181.73
-179.08
-173.92
-166.39
-157.10
-146.97
-136.80
-127.05
-117.76
-108.72
-99.77
-91.02
-82.75
-75.22
-68.45
-62.05
-55.42
-47.98
-39.53
-30.29
-20.77
-11.53
-2.89
5.10
12.40
18.60
22.62
22.94
18.22
8.10
-6.25
-22.24
-36.61
-46.36
-49.66
-46.12
-36.75
-23.51
-9.03
3.87
12.73
16.02
13.69
7.22
-0.93
-8.28
-13.25
-15.51
-15.68
-14.66
-13.03
-10.81
-7.76
-3.80
0.73
5.11
8.58
10.70
11.55
11.69
11.79
12.42
13.69
15.35
16.94
18.08
18.63
18.78
18.79
18.89
19.20
19.80
20.96
23.18
26.89
32.07
37.73
42.04
42.81
38.59
29.43
17.08
4.57
-4.84
-8.44
-4.61
7.37
27.69
56.06
91.32
130.70
169.53
201.88
222.20
227.26
217.28
195.61
167.08
135.94
104.23
71.68
36.39
-3.94
-51.22
-106.57
-169.76
-238.27
-306.38
-365.47
-406.14
-421.78
-411.61
-381.57
-341.78
-301.98
-267.41
-237.24
-206.36
-169.08
-122.23
-66.14
-3.55
61.82
125.80
183.38
228.63
256.22
264.35
257.05
243.91
236.54
243.30
265.22
295.53
323.08
337.61
333.69
311.61
275.34
229.38
176.64
118.59
56.29
-8.66
-74.17
-138.03
-198.41
-253.69
-302.15
-341.67
-369.91
-385.01
-385.70
-371.16
-340.66
-293.74
-231.64
-159.43
-87.08
-28.01
5.35
7.10
-18.59
-58.12
-93.55
-109.44
-97.96
-59.93
-2.48
64.94
133.52
195.83
244.92
273.91
276.84
250.66
197.02
122.76
38.59
-43.22
-111.49
-158.12
-179.30
-175.79
-152.10
-114.78
-70.46
-24.09
21.76
66.33
109.45
150.65
188.72
221.78
247.66
264.02
268.49
258.93
234.17
194.60
142.42
81.26
15.70
-49.09
-107.25
-152.26
-177.56
-178.20
-153.16
-107.03
-50.02
4.76
45.42
65.37
65.16
51.12
31.70
13.56
-0.54
-11.31
-20.51
-28.62
-34.16
-34.66
-28.79
-17.92
-6.02
2.18
3.44
-2.36
-12.38
-22.24
-28.13
-28.27
-23.31
-15.43
-7.05
0.31
6.48
12.34
18.94
26.72
35.17
43.16
49.53
53.87
56.77
59.53
63.37
68.72
74.84
80.14
82.83
81.79
77.07
69.86
62.01
55.24
50.46
47.47
45.17
42.08
37.01
29.51
19.95
9.23
-1.71
-12.18
-21.83
-30.51
-37.91
-43.43
-46.29
-45.94
-42.35
-36.23
-28.85
-21.66
-15.84
-11.92
-9.74
-8.56
-7.52
-5.94
-3.58
-0.70
2.24
4.85
6.97
8.64
10.00
11.01
11.57
11.63
11.41
11.39
12.09
13.71
15.95
18.04
19.11
18.66
16.69
13.56
9.77
5.59
1.04
-3.94
-9.29
-14.77
-20.05
-24.90
-29.40
-33.92
-39.06
-45.46
-53.60
-63.76
-75.92
-89.81
-105.00
-121.06
-137.57
-154.09
-170.05
-184.72
-197.24
-206.69
-212.11
-212.52
-207.07
-195.21
-177.21
-154.23
-128.17
-101.06
-74.36
-48.64
-23.76
0.69
25.02
49.39
74.04
99.35
125.35
151.01
173.75
189.80
195.45
188.78
170.85
145.59
118.55
94.93
78.14
69.18
67.10
70.11
76.53
85.08
94.85
104.78
113.40
118.98
120.11
116.42
108.84
99.21
89.42
80.36
71.44
60.85
46.55
27.32
3.47
-23.18
-50.00
-74.35
-94.20
-108.46
-117.05
-120.86
-121.39
-120.20
-118.38
-116.16
-112.98
-108.00
-100.72
-91.14
-79.49
-65.75
-49.46
-30.08
-7.79
15.88
38.17
55.99
67.25
71.69
70.87
67.20
62.87
59.08
55.98
53.01
49.47
44.89
39.20
32.69
25.89
19.42
13.75
9.03
4.95
0.93
-3.64
-8.99
-14.83
-20.47
-25.21
-28.83
-31.78
-34.94
-39.15
-44.59
-50.55
-55.68
-58.56
-58.25
-54.56
-47.89
-38.91
-28.49
-17.63
-7.60
0.40
5.75
8.96
11.64
15.83
22.86
32.39
42.40
49.96
52.58
49.23
40.66
28.84
16.09
4.46
-4.63
-10.31
-12.18
-10.43
-5.84
0.22
6.07
10.15
11.43
9.57
4.97
-1.48
-8.60
-15.18
-20.24
-23.17
-23.76
-22.14
-18.68
-13.80
-7.95
-1.66
4.38
9.32
12.32
12.85
10.88
6.98
2.09
-2.50
-5.22
-4.37
1.33
11.93
25.75
39.58
49.95
54.66
53.81
49.53
44.46
40.00
35.45
28.72
18.09
3.81
-11.52
-24.15
-31.03
-31.30
-26.34
-18.87
-11.45
-5.57
-1.59
0.84
2.18
2.69
2.43
1.53
0.32
-0.77
-1.44
-1.72
-2.06
-3.08
-5.23
-8.51
-12.34
-15.80
-18.01
-18.54
-17.55
-15.74
-14.05
-13.22
-13.63
-15.26
-17.68
-19.99
-20.85
-18.57
-11.81
-0.55
13.15
25.42
32.04
30.52
21.67
9.56
-0.35
-4.05
-0.99
5.88
12.01
13.93
11.06
5.54
0.64
-1.39
-0.37
2.12
4.04
4.25
3.03
1.69
1.50
2.94
5.43
7.76
8.83
8.22
6.38
4.36
3.22
3.57
5.25
7.44
9.04
9.16
7.52
4.56
1.30
-1.06
-1.61
-0.13
2.76
5.83
7.70
7.46
5.08
1.44
-2.09
-4.26
-4.63
-3.62
-2.31
-1.81
-2.72
-4.83
-7.37
-9.51
-10.68
-10.62
-9.15
-5.90
-0.58
6.50
13.99
19.65
21.31
18.16
11.48
4.28
-0.22
-0.33
3.16
7.45
9.45
7.59
2.60
-3.00
-6.59
-6.89
-4.58
-1.63
-0.10
-1.01
-4.04
-7.91
-11.22
-13.15
-13.64
-13.19
-12.35
-11.36
-10.17
-8.55
-6.48
-4.25
-2.43
-1.59
-2.03
-3.60
-5.80
-8.05
-9.90
-11.23
-12.20
-13.11
-14.27
-15.88
-18.05
-20.58
-22.92
-24.16
-23.36
-20.06
-14.83
-9.18
-4.91
-2.94
-2.57
-1.61
2.40
10.75
22.70
35.80
47.21
54.96
58.49
58.22
54.69
48.03
38.18
25.63
11.95
-0.47
-9.23
-12.87
-11.39
-6.15
0.80
7.34
11.81
13.28
11.59
7.30
1.51
-4.57
-9.92
-14.00
-16.71
-18.23
-18.84
-18.79
-18.35
-17.82
-17.47
-17.47
-17.84
-18.45
-19.15
-19.87
-20.54
-21.10
-21.46
-21.51
-21.21
-20.66
-20.06
-19.60
-19.39
-19.24
-18.77
-17.52
-15.17
-11.66
-7.27
-2.44
2.36
6.78
10.66
13.95
16.62
18.69
20.20
21.26
22.03
22.61
22.96
22.83
21.91
20.03
17.33
14.28
11.53
9.61
8.70
8.50
8.41
7.84
6.48
4.49
2.32
0.48
-0.72
-1.37
-1.72
-2.08
-2.61
-3.25
-3.88
-4.46
-5.08
-5.92
-7.06
-8.44
-9.80
-10.83
-11.30
-11.12
-10.38
-9.30
-8.15
-7.18
-6.55
-6.35
-6.52
-6.96
-7.53
-8.21
-9.05
-10.20
-11.75
-13.59
-15.41
-16.77
-17.33
-17.06
-16.22
-15.28
-14.58
-14.15
-13.66
-12.67
-10.87
-8.28
-5.32
-2.55
-0.43
0.86
1.44
1.55
1.50
1.54
2.01
3.26
5.67
9.40
14.21
19.32
23.60
25.99
25.95
23.75
20.31
16.90
14.56
13.76
14.30
15.55
16.80
17.55
17.62
17.05
15.99
14.60
13.01
11.36
9.79
8.38
7.01
5.42
3.29
0.43
-3.07
-6.82
-10.38
-13.42
-15.86
-17.81
-19.36
-20.45
-20.88
-20.38
-18.85
-16.46
-13.58
-10.67
-8.14
-6.24
-5.03
-4.41
-4.00
-3.25
-1.65
1.06
4.62
8.22
10.90
11.95
11.30
9.63
8.00
7.37
8.16
10.10
12.54
14.83
16.60
17.88
18.87
19.75
20.52
21.06
21.14
20.47
18.78
15.76
11.19
5.00
-2.63
-11.19
-19.93
-28.00
-34.63
-39.30
-41.76
-42.07
-40.50
-37.44
-33.35
-28.64
-23.75
-19.04
-14.82
-11.20
-8.13
-5.40
-2.79
-0.20
2.25
4.27
5.57
5.99
5.60
4.66
3.46
2.23
1.04
-0.14
-1.41
-2.82
-4.34
-5.80
-7.04
-7.90
-8.34
-8.45
-8.34
-8.15
-7.96
-7.77
-7.53
-7.18
-6.64
-5.82
-4.64
-3.10
-1.29
0.67
2.65
4.61
6.51
8.25
9.64
10.37
10.21
9.17
7.55
5.83
4.52
3.88
3.88
4.30
4.81
5.17
5.25
5.00
4.36
3.30
1.81
-0.05
-2.11
-4.17
-6.05
-7.63
-8.95
-10.13
-11.33
-12.64
-13.96
-14.97
-15.27
-14.52
-12.69
-10.06
-7.15
-4.52
-2.53
-1.33
-0.87
-1.01
-1.61
-2.53
-3.54
-4.33
-4.56
-4.06
-2.94
-1.57
-0.45
0.11
0.07
-0.26
-0.49
-0.31
0.33
1.29
2.40
3.58
4.87
6.31
7.79
9.02
9.65
9.41
8.24
6.35
4.10
1.95
0.26
-0.72
-0.97
-0.67
-0.12
0.36
0.54
0.46
0.32
0.40
0.83
1.52
2.13
2.27
1.64
0.20
-1.81
-3.90
-5.49
-6.04
-5.18
-2.89
0.55
4.61
8.71
12.28
14.91
16.35
16.47
15.24
12.83
9.57
5.99
2.66
0.11
-1.39
-1.95
-1.97
-1.97
-2.39
-3.39
-4.79
-6.19
-7.15
-7.35
-6.67
-5.27
-3.36
-1.22
0.91
2.87
4.52
5.78
6.65
7.20
7.63
8.15
8.90
9.96
11.28
12.78
14.30
15.64
16.62
17.09
17.01
16.39
15.36
14.04
12.58
11.14
9.94
9.17
8.95
9.20
9.61
9.71
9.08
7.50
5.05
2.04
-1.11
-4.09
-6.67
-8.78
-10.33
-11.22
-11.27
-10.36
-8.49
-5.89
-3.00
-0.37
1.49
2.20
1.61
-0.25
-3.12
-6.51
-9.73
-11.95
-12.47
-11.00
-7.88
-4.05
-0.64
1.43
1.90
1.15
-0.05
-1.02
-1.44
-1.37
-1.01
-0.44
0.39
1.51
2.72
3.43
2.88
0.55
-3.39
-8.02
-11.88
-13.57
-12.30
-8.12
-1.80
5.52
12.74
18.92
23.29
25.20
24.18
20.27
14.29
7.86
3.01
1.49
3.99
9.80
16.98
23.15
26.35
25.78
21.89
16.05
9.83
4.42
0.37
-2.31
-3.84
-4.34
-3.86
-2.47
-0.49
1.44
2.62
2.50
1.06
-1.22
-3.53
-5.09
-5.50
-4.86
-3.66
-2.39
-1.33
-0.39
0.75
2.42
4.68
7.28
9.81
11.86
13.29
14.27
15.27
16.80
19.18
22.40
26.00
29.23
31.25
31.42
29.56
25.98
21.35
16.35
11.44
6.66
1.78
-3.51
-9.32
-15.56
-21.92
-28.05
-33.63
-38.42
-42.15
-44.49
-45.20
-44.15
-41.47
-37.42
-32.30
-26.36
-19.81
-13.01
-6.60
-1.55
1.08
0.42
-3.79
-11.01
-19.93
-28.78
-35.92
-40.35
-41.98
-41.60
-40.37
-39.29
-38.80
-38.72
-38.59
-38.26
-38.14
-39.14
-42.33
-48.44
-57.49
-68.63
-80.27
-90.11
-95.55
-93.89
-83.00
-61.98
-31.75
4.67
42.61
76.80
102.78
118.13
122.93
119.28
110.19
98.56
86.41
75.03
65.31
58.17
54.39
54.13
56.51
59.56
60.81
58.31
51.28
40.24
26.47
11.20
-4.80
-21.16
-37.52
-53.07
-66.50
-76.42
-81.94
-83.05
-80.60
-75.77
-69.52
-62.16
-53.40
-42.81
-30.27
-16.35
-2.27
10.57
21.08
28.90
34.36
38.14
40.79
42.39
42.64
41.34
38.74
35.71
33.47
32.99
34.49
37.25
40.03
41.67
41.64
40.21
38.10
35.91
33.67
30.78
26.40
20.08
12.27
4.35
-1.78
-4.49
-3.09
1.92
9.03
16.21
21.57
23.78
22.27
17.28
9.77
1.21
-6.70
-12.53
-15.43
-15.42
-13.26
-10.06
-6.72
-3.57
-0.38
3.25
7.41
11.49
14.36
14.87
12.46
7.54
1.33
-4.63
-9.00
-10.98
-10.38
-7.39
-2.49
3.68
10.33
16.58
21.62
24.97
26.52
26.40
24.85
21.98
17.95
13.03
7.83
3.24
0.17
-0.76
0.61
3.96
8.65
13.91
18.95
23.05
25.60
26.25
25.04
22.51
19.55
17.06
15.67
15.43
15.92
16.55
16.84
16.66
16.19
15.76
15.56
15.59
15.72
15.79
15.78
15.72
15.66
15.58
15.46
15.31
15.18
15.14
15.10
14.70
13.55
11.37
8.27
4.81
1.73
-0.32
-1.15
-0.97
-0.33
0.28
0.59
0.57
0.38
0.26
0.37
0.84
1.72
2.97
4.45
5.91
6.97
7.32
6.77
5.38
3.41
1.20
-1.02
-3.20
-5.49
-8.02
-10.77
-13.51
-15.90
-17.69
-18.84
-19.60
-20.29
-21.25
-22.65
-24.55
-26.96
-29.83
-33.07
-36.40
-39.42
-41.64
-42.68
-42.45
-41.20
-39.44
-37.67
-36.14
-34.73
-33.05
-30.58
-27.01
-22.36
-17.04
-11.72
-7.04
-3.45
-1.03
0.40
1.20
1.72
2.25
3.07
4.41
6.48
9.35
12.91
16.92
21.05
25.12
29.07
32.96
36.74
40.15
42.77
44.21
44.39
43.72
42.88
42.62
43.42
45.41
48.43
52.12
56.05
59.68
62.35
63.28
61.82
57.66
50.91
42.23
32.56
22.93
14.17
6.86
1.24
-2.67
-4.99
-5.90
-5.58
-4.16
-1.78
1.29
4.72
8.00
10.65
12.24
12.53
11.40
8.77
4.44
-1.83
-10.14
-20.27
-31.53
-42.82
-53.03
-61.50
-68.36
-74.50
-81.05
-88.67
-97.01
-104.71
-110.04
-111.95
-110.92
-108.90
-108.63
-112.31
-120.53
-132.06
-144.44
-154.95
-161.49
-162.73
-158.07
-147.56
-132.13
-113.82
-95.60
-80.46
-70.14
-64.18
-60.03
-54.17
-43.87
-28.23
-8.35
13.49
35.01
54.57
71.25
84.59
94.32
100.43
103.46
104.51
104.85
105.47
106.61
107.69
107.72
105.87
102.00
96.80
91.47
87.20
84.77
84.13
84.64
85.29
85.24
84.21
82.54
80.98
80.25
80.52
81.10
80.48
76.72
68.16
54.12
35.53
14.96
-3.83
-17.16
-22.62
-20.25
-12.57
-3.75
2.05
2.27
-3.07
-11.63
-20.00
-25.23
-25.97
-22.77
-17.38
-11.69
-6.86
-3.13
-0.28
1.72
2.33
0.60
-4.29
-12.38
-22.68
-33.43
-42.72
-49.14
-52.19
-52.15
-49.89
-46.55
-43.41
-41.83
-42.99
-47.34
-54.10
-61.08
-65.25
-63.92
-55.91
-42.25
-25.80
-10.05
2.34
10.37
14.66
16.47
16.65
15.05
10.85
3.41
-6.84
-18.17
-28.18
-34.86
-37.48
-36.85
-34.83
-33.18
-32.64
-32.60
-31.48
-27.69
-20.63
-11.16
-1.45
5.90
8.87
6.87
0.89
-6.91
-14.13
-18.96
-20.61
-19.30
-15.77
-10.77
-4.85
1.64
8.32
14.62
19.97
24.08
27.28
30.47
34.71
40.57
47.68
54.66
59.57
60.69
57.16
49.28
38.26
25.78
13.43
2.41
-6.58
-13.27
-17.70
-20.18
-21.33
-21.89
-22.71
-24.43
-27.30
-31.06
-35.02
-38.38
-40.51
-41.27
-41.22
-41.46
-43.21
-47.27
-53.43
-60.33
-65.71
-67.17
-63.11
-53.42
-39.66
-24.53
-10.87
-0.66
5.43
7.93
7.96
6.62
4.59
2.24
-0.21
-2.40
-3.97
-4.70
-4.69
-4.45
-4.73
-6.18
-9.13
-13.46
-18.58
-23.49
-27.03
-28.10
-26.00
-20.62
-12.49
-2.57
8.08
18.57
28.35
37.15
44.83
51.16
55.75
58.12
58.06
55.75
51.90
47.53
43.49
40.21
37.48
34.74
31.51
27.65
23.58
19.94
17.23
15.55
14.51
13.56
12.25
10.46
8.41
6.45
4.84
3.70
2.98
2.62
2.54
2.70
2.91
2.88
2.24
0.70
-1.74
-4.72
-7.63
-9.81
-10.84
-10.63
-9.40
-7.55
-5.39
-3.09
-0.70
1.70
3.99
5.95
7.35
8.10
8.24
8.01
7.60
7.14
6.65
6.03
5.23
4.33
3.53
3.02
2.94
3.22
3.60
3.77
3.56
2.90
1.94
0.76
-0.65
-2.49
-4.96
-8.13
-11.78
-15.45
-18.62
-20.87
-22.07
-22.35
-21.95
-21.06
-19.76
-18.06
-15.96
-13.56
-10.98
-8.36
-5.74
-3.06
-0.20
2.93
6.25
9.53
12.38
14.37
15.20
14.78
13.28
11.07
8.61
6.32
4.47
3.14
2.25
1.65
1.18
0.78
0.49
0.40
0.57
1.00
1.57
2.02
2.04
1.41
0.06
-1.81
-3.83
-5.53
-6.56
-6.77
-6.28
-5.41
-4.49
-3.73
-3.16
-2.65
-1.97
-0.91
0.60
2.53
4.68
6.76
8.46
9.54
9.91
9.65
9.03
8.47
8.31
8.73
9.61
10.67
11.55
12.10
12.45
12.89
13.69
14.91
16.27
17.38
17.82
17.39
16.16
14.38
12.33
10.26
8.34
6.71
5.49
4.74
4.42
4.37
4.34
4.04
3.31
2.17
0.93
0.11
0.31
2.02
5.42
10.26
15.91
21.54
26.41
30.07
32.44
33.71
34.11
33.70
32.32
29.69
25.62
20.15
13.65
6.62
-0.48
-7.38
-13.98
-20.21
-25.90
-30.74
-34.34
-36.57
-37.57
-37.84
-37.90
-38.06
-38.10
-37.36
-35.03
-30.61
-24.26
-17.03
-10.60
-6.80
-6.94
-11.21
-18.52
-26.77
-33.51
-36.77
-35.65
-30.47
-22.58
-13.74
-5.61
0.66
4.60
6.41
6.83
6.91
7.68
9.76
13.06
16.63
18.98
18.52
14.27
6.25
-4.33
-15.29
-23.98
-28.01
-26.11
-18.59
-7.47
4.10
12.87
16.67
15.07
9.39
1.97
-4.87
-9.66
-11.98
-12.18
-10.87
-8.42
-4.96
-0.57
4.35
9.00
12.30
13.25
11.36
6.84
0.64
-5.91
-11.49
-15.09
-16.30
-15.30
-12.78
-9.75
-7.29
-6.27
-7.09
-9.48
-12.49
-14.83
-15.29
-13.21
-8.74
-2.69
3.87
10.13
15.76
20.98
26.14
31.46
36.79
41.72
45.81
48.87
51.00
52.47
53.45
53.85
53.36
51.67
48.68
44.67
40.16
35.74
31.81
28.41
25.28
22.00
18.24
13.85
8.96
3.92
-0.80
-4.71
-7.47
-8.94
-9.22
-8.60
-7.44
-6.06
-4.61
-3.08
-1.30
0.88
3.49
6.38
9.18
11.47
12.87
13.15
12.25
10.30
7.54
4.27
0.80
-2.50
-5.33
-7.43
-8.69
-9.16
-9.08
-8.75
-8.46
-8.41
-8.56
-8.75
-8.74
-8.30
-7.33
-5.80
-3.87
-1.77
0.24
1.91
3.03
3.50
3.39
2.85
2.14
1.47
0.84
0.06
-1.23
-3.41
-6.63
-10.72
-15.21
-19.52
-23.11
-25.62
-26.90
-27.05
-26.28
-24.86
-23.13
-21.39
-19.86
-18.72
-18.00
-17.66
-17.61
-17.72
-17.81
-17.68
-17.10
-15.87
-13.93
-11.40
-8.59
-5.91
-3.64
-1.92
-0.66
0.35
1.26
2.05
2.59
2.68
2.27
1.49
0.60
-0.12
-0.54
-0.73
-0.90
-1.25
-1.88
-2.67
-3.37
-3.71
-3.48
-2.63
-1.28
0.32
1.85
3.06
3.86
4.29
4.51
4.72
5.04
5.43
5.77
5.83
5.39
4.35
2.72
0.68
-1.45
-3.32
-4.59
-5.04
-4.66
-3.67
-2.46
-1.49
-1.15
-1.57
-2.67
-4.10
-5.44
-6.37
-6.74
-6.58
-6.06
-5.38
-4.64
-3.87
-3.07
-2.18
-1.19
-0.12
0.99
2.05
3.04
3.93
4.73
5.46
6.07
6.49
6.63
6.44
5.94
5.23
4.44
3.62
2.81
1.93
0.95
-0.13
-1.23
-2.23
-3.02
-3.54
-3.87
-4.10
-4.34
-4.63
-4.94
-5.15
-5.12
-4.80
-4.21
-3.46
-2.69
-2.01
-1.49
-1.15
-1.00
-1.09
-1.46
-2.04
-2.74
-3.41
-3.93
-4.35
-4.79
-5.43
-6.33
-7.46
-8.64
-9.66
-10.31
-10.48
-10.08
-9.08
-7.51
-5.51
-3.31
-1.19
0.65
2.11
3.20
4.00
4.62
5.18
5.79
6.57
7.55
8.58
9.32
9.28
8.12
5.84
2.91
0.14
-1.61
-1.72
-0.03
3.15
7.21
11.48
15.30
18.17
19.71
19.64
17.85
14.42
9.65
4.04
-1.85
-7.42
-12.20
-15.90
-18.40
-19.74
-20.08
-19.61
-18.48
-16.78
-14.56
-11.82
-8.65
-5.24
-1.81
1.41
4.28
6.78
8.95
10.86
12.56
14.03
15.27
16.29
17.10
17.74
18.22
18.58
18.89
19.23
19.73
20.47
21.54
22.94
24.58
26.30
27.82
28.87
29.19
28.69
27.41
25.54
23.37
21.15
19.08
17.26
15.62
14.02
12.21
9.91
6.80
2.55
-2.98
-9.69
-17.13
-24.56
-31.03
-35.68
-37.92
-37.71
-35.69
-33.05
-31.26
-31.51
-34.21
-38.78
-43.91
-48.13
-50.55
-51.10
-50.37
-48.98
-47.00
-43.86
-38.80
-31.60
-23.01
-14.55
-7.81
-3.59
-1.58
-0.65
0.45
2.51
5.55
9.16
12.78
16.04
18.75
20.72
21.78
21.73
20.56
18.51
16.05
13.70
11.82
10.51
9.67
9.18
8.96
9.07
9.58
10.43
11.36
11.96
11.84
10.77
8.87
6.51
4.19
2.31
1.05
0.43
0.40
0.99
2.32
4.44
7.16
9.95
12.07
12.86
12.07
9.97
7.23
4.65
2.84
1.96
1.86
2.13
2.33
2.06
0.93
-1.48
-5.52
-11.17
-17.80
-24.10
-28.37
-29.14
-25.85
-19.21
-10.97
-3.32
1.93
4.01
3.32
1.14
-0.93
-1.67
-0.70
1.43
3.55
4.40
3.31
0.45
-3.15
-6.17
-7.64
-7.42
-6.27
-5.52
-6.50
-10.09
-16.40
-24.67
-33.38
-40.52
-44.09
-42.65
-35.84
-24.45
-10.08
5.52
21.04
35.83
49.62
62.15
72.85
80.92
85.69
87.00
85.33
81.61
76.90
72.12
67.78
63.92
59.97
54.87
47.44
36.94
23.60
8.88
-5.01
-15.88
-22.45
-24.76
-23.92
-21.44
-18.68
-16.49
-15.44
-15.96
-18.40
-22.81
-28.66
-34.82
-39.82
-42.48
-42.29
-39.58
-35.15
-29.93
-24.64
-19.80
-15.76
-12.88
-11.39
-11.20
-11.87
-12.64
-12.79
-11.94
-10.31
-8.55
-7.50
-7.72
-9.24
-11.57
-13.94
-15.62
-16.21
-15.70
-14.37
-12.65
-10.91
-9.42
-8.41
-8.03
-8.44
-9.66
-11.52
-13.63
-15.45
-16.38
-16.06
-14.40
-11.71
-8.56
-5.61
-3.46
-2.45
-2.59
-3.61
-5.02
-6.29
-7.03
-7.02
-6.34
-5.26
-4.12
-3.22
-2.78
-2.90
-3.53
-4.50
-5.48
-6.08
-5.88
-4.67
-2.56
-0.01
2.29
3.71
3.96
3.21
2.10
1.35
1.50
2.71
4.75
7.17
9.47
11.27
12.38
12.79
12.68
12.31
11.94
11.78
11.82
11.92
11.82
11.35
10.50
9.45
8.50
7.92
7.87
8.31
9.10
10.03
10.95
11.79
12.54
13.27
14.04
14.88
15.75
16.60
17.33
17.85
18.07
17.93
17.37
16.37
15.01
13.49
12.10
11.15
10.77
10.83
10.90
10.38
8.62
5.13
-0.32
-7.52
-15.77
-23.94
-30.64
-34.63
-35.21
-32.63
-28.11
-23.55
-20.91
-21.55
-25.77
-32.82
-41.13
-48.76
-53.83
-54.86
-51.05
-42.53
-30.39
-16.53
-3.23
7.47
14.42
17.60
18.04
17.40
17.24
18.54
21.46
25.51
29.90
33.85
36.79
38.25
37.83
35.14
29.98
22.59
13.82
5.04
-2.27
-7.00
-8.80
-8.13
-5.96
-3.35
-1.11
0.31
0.80
0.45
-0.59
-2.05
-3.61
-4.97
-5.89
-6.29
-6.21
-5.78
-5.02
-3.85
-2.09
0.31
3.18
6.11
8.48
9.80
9.83
8.68
6.75
4.56
2.50
0.75
-0.71
-2.02
-3.29
-4.50
-5.56
-6.32
-6.64
-6.45
-5.74
-4.50
-2.77
-0.67
1.53
3.46
4.70
4.91
3.99
2.09
-0.45
-3.18
-5.73
-7.86
-9.50
-10.73
-11.73
-12.72
-13.89
-15.27
-16.76
-18.13
-19.19
-19.86
-20.17
-20.19
-19.84
-18.90
-17.09
-14.27
-10.63
-6.72
-3.29
-1.04
-0.39
-1.41
-3.91
-7.65
-12.32
-17.53
-22.68
-27.03
-29.99
-31.43
-31.70
-31.23
-29.95
-26.93
-20.47
-9.00
7.99
29.34
52.56
74.87
94.39
110.87
125.27
138.88
152.37
165.40
176.95
185.99
191.95
194.69
194.28
190.64
183.43
172.35
157.47
139.40
119.30
98.54
78.50
60.32
44.87
32.67
23.92
18.54
16.20
16.41
18.57
21.93
25.52
28.08
28.23
24.89
17.70
7.25
-5.15
-18.16
-30.91
-43.17
-54.85
-65.32
-73.00
-75.61
-71.17
-59.00
-40.25
-17.71
4.95
23.95
36.03
38.86
31.38
14.16
-10.41
-38.59
-66.37
-90.73
-110.49
-126.25
-139.32
-150.53
-159.51
-164.88
-165.16
-159.76
-149.49
-136.33
-122.64
-110.38
-100.63
-93.47
-88.27
-84.18
-80.58
-77.13
-73.79
-70.49
-66.88
-62.34
-56.08
-47.61
-36.98
-24.97
-12.74
-1.46
8.07
15.59
21.06
24.43
25.30
23.08
17.27
7.93
-4.08
-17.13
-29.20
-38.40
-43.48
-44.08
-40.79
-34.88
-27.87
-21.17
-15.74
-12.10
-10.31
-10.09
-10.91
-12.03
-12.61
-11.82
-8.97
-3.68
4.02
13.59
23.99
33.80
41.48
45.68
45.78
42.04
35.75
28.86
23.32
20.52
20.92
24.31
30.21
38.35
48.79
61.66
76.79
93.44
110.31
125.82
138.43
146.91
150.73
150.37
147.50
144.82
145.06
149.76
158.15
167.12
172.50
170.86
161.11
144.79
124.81
103.71
82.37
60.00
35.17
7.23
-23.05
-53.82
-83.30
-110.75
-136.91
-163.54
-192.58
-225.28
-261.50
-299.85
-338.17
-374.30
-406.76
-434.99
-459.03
-478.94
-494.28
-503.91
-506.22
-499.66
-483.25
-456.94
-421.70
-379.45
-332.60
-283.80
-235.24
-188.28
-143.20
-99.35
-55.31
-9.53
39.06
90.27
142.02
190.26
229.82
256.25
267.67
265.90
256.01
244.32
235.90
232.76
233.66
235.24
233.83
226.78
213.02
192.84
167.44
138.72
108.97
80.42
54.60
31.76
11.22
-8.03
-26.37
-43.09
-56.78
-66.17
-70.89
-71.57
-69.27
-64.75
-58.16
-49.50
-39.23
-28.49
-18.42
-8.88
2.22
18.06
40.69
68.53
95.75
114.50
118.77
108.08
88.43
69.62
60.72
65.85
82.84
104.87
124.03
134.33
133.11
120.58
98.64
70.02
37.93
5.94
-22.45
-44.42
-58.60
-65.21
-65.96
-63.32
-59.87
-57.51
-56.64
-55.73
-51.73
-41.37
-22.87
2.80
32.19
60.98
85.97
106.07
121.77
133.62
141.25
143.68
140.85
134.95
130.27
131.22
139.71
153.52
166.70
172.14
164.68
143.19
110.76
73.13
36.49
5.43
-18.03
-34.19
-44.76
-51.82
-56.99
-61.34
-65.69
-71.03
-78.53
-89.03
-102.21
-116.23
-128.08
-134.76
-134.69
-128.30
-117.61
-104.91
-91.39
-76.51
-58.56
-36.09
-9.32
19.37
46.08
67.06
80.27
86.05
86.72
85.28
84.08
84.11
85.00
85.38
83.38
76.95
64.35
44.87
19.47
-8.93
-36.00
-57.43
-70.51
-75.18
-73.71
-69.45
-65.12
-61.81
-58.87
-54.67
-47.72
-37.45
-24.37
-9.78
4.98
18.98
31.98
44.08
55.02
63.77
68.88
69.60
67.23
65.29
68.35
79.48
98.01
119.00
135.15
140.33
132.58
115.03
93.97
75.31
61.59
50.93
38.53
19.49
-8.58
-44.48
-83.91
-121.31
-151.85
-172.96
-184.80
-189.78
-191.26
-192.18
-193.96
-196.31
-197.74
-196.42
-190.81
-179.71
-161.87
-135.85
-100.63
-56.71
-7.03
43.18
87.85
122.41
145.38
158.63
165.93
170.55
173.31
171.97
162.31
140.22
104.06
56.26
3.32
-45.76
-82.56
-102.42
-106.16
-99.32
-89.13
-80.76
-75.09
-69.61
-61.27
-49.52
-37.14
-28.60
-27.12
-32.90
-43.66
-56.72
-70.93
-86.67
-103.86
-119.78
-128.96
-125.73
-107.88
-79.04
-47.50
-22.28
-8.57
-5.43
-7.21
-7.63
-3.75
2.41
5.67
1.44
-11.15
-28.61
-45.10
-55.69
-58.68
-55.73
-49.82
-42.78
-33.81
-19.85
2.70
35.75
78.10
125.59
172.42
212.87
242.79
260.64
267.98
268.93
268.65
270.94
276.08
280.46
278.78
267.99
250.61
234.76
230.34
243.06
269.98
299.87
318.30
314.78
287.81
244.97
197.91
156.30
123.60
97.00
70.84
40.29
3.23
-40.25
-89.78
-145.46
-207.03
-271.88
-333.78
-383.27
-410.17
-407.42
-374.14
-316.55
-246.20
-176.24
-117.36
-75.08
-48.98
-34.31
-24.51
-13.92
0.68
19.79
42.10
65.66
88.22
107.18
118.99
119.89
107.75
84.35
56.66
35.13
29.74
45.44
79.69
123.70
166.70
200.43
221.54
230.86
230.65
222.38
206.20
182.50
153.63
124.14
98.96
80.59
67.06
51.90
26.88
-14.34
-72.52
-141.15
-207.44
-255.90
-274.17
-258.04
-214.27
-158.04
-108.16
-79.99
-80.03
-104.05
-139.21
-169.23
-179.92
-164.07
-121.71
-60.89
5.61
63.91
102.64
115.40
101.63
66.34
18.22
-29.73
-64.96
-77.48
-62.73
-23.56
30.11
84.09
124.59
141.37
133.25
104.40
62.80
16.92
-26.17
-61.89
-88.04
-97.91
-101.74
-103.70
-111.25
-132.16
-171.18
-227.08
-291.59
-351.31
-392.13
-405.41
-387.86
-344.83
-286.44
-223.75
-165.41
-116.18
-76.67
-43.97
-13.57
21.00
62.89
109.82
153.46
182.03
184.68
156.69
102.35
33.39
-33.69
-84.47
-110.22
-108.33
-80.88
-33.55
24.88
83.27
129.60
154.45
152.84
125.78
80.54
28.78
-14.95
-38.44
-37.22
-16.42
12.89
39.01
52.63
47.11
23.05
-14.63
-57.87
-97.06
-123.33
-131.27
-117.55
-86.94
-50.22
-19.15
-1.17
4.67
7.54
19.93
50.80
99.72
155.19
199.58
216.99
200.06
153.02
89.63
27.56
-17.55
-36.41
-27.27
5.73
54.94
111.17
164.94
207.60
231.87
233.36
211.71
170.97
118.97
65.31
18.91
-14.60
-32.17
-35.29
-29.44
-24.29
-28.78
-49.06
-88.06
-142.53
-205.13
-265.58
-313.42
-341.10
-346.03
-330.55
-300.66
-264.02
-226.23
-188.86
-149.32
-103.36
-48.25
15.58
79.65
134.52
169.28
176.74
157.23
119.75
78.95
50.10
43.90
64.51
108.73
167.13
227.98
280.72
318.26
337.44
338.75
317.27
274.58
219.64
164.07
116.16
78.39
49.48
27.43
10.81
-1.73
-11.72
-22.54
-38.16
-61.42
-92.91
-131.30
-174.73
-222.50
-267.73
-304.35
-326.52
-329.50
-310.99
-272.33
-218.99
-159.47
-102.71
-55.12
-19.12
6.04
22.54
32.25
36.53
36.78
35.27
35.32
41.04
55.73
80.20
111.90
145.30
172.89
187.43
184.54
164.66
130.93
93.58
63.53
47.04
44.09
49.42
56.08
58.91
56.39
49.99
42.41
35.08
26.99
16.12
0.73
-19.79
-44.79
-72.55
-101.49
-130.65
-157.36
-181.69
-202.40
-215.93
-217.38
-203.08
-173.14
-132.43
-88.79
-50.14
-22.06
-5.48
2.33
5.54
7.35
9.26
11.62
15.13
21.64
33.69
53.78
82.78
118.60
155.69
185.85
200.72
193.60
166.07
125.97
84.60
51.78
32.02
23.18
18.72
11.28
-3.31
-24.99
-51.74
-81.06
-110.78
-138.51
-160.87
-171.51
-167.13
-147.63
-116.41
-80.01
-45.28
-16.75
4.44
20.04
32.09
41.20
47.01
49.44
49.29
48.71
50.60
57.65
71.20
91.19
114.97
137.90
154.45
159.55
150.66
129.26
100.84
71.04
47.90
35.45
32.32
33.35
33.12
29.03
22.05
14.84
8.99
3.62
-5.01
-20.87
-46.00
-79.71
-119.21
-160.73
-197.87
-226.58
-243.01
-244.48
-230.03
-201.42
-163.29
-122.04
-83.68
-51.95
-27.97
-10.11
3.17
12.62
18.14
20.06
19.99
21.30
27.57
41.01
62.56
90.58
121.51
150.21
171.02
179.06
171.90
150.78
118.67
84.17
55.44
36.75
27.37
22.92
18.63
11.79
2.44
-7.65
-17.11
-27.20
-41.36
-63.03
-92.86
-126.94
-157.03
-173.06
-166.97
-135.65
-82.88
-17.53
49.57
108.40
151.26
173.26
172.04
148.99
110.25
65.83
27.80
7.10
9.93
35.67
77.77
124.38
162.53
182.07
177.80
150.40
105.70
52.49
-0.16
-44.86
-77.94
-98.84
-106.10
-100.11
-83.67
-61.54
-39.55
-25.38
-22.55
-33.24
-58.74
-99.70
-154.29
-218.80
-286.46
-347.87
-393.09
-414.41
-409.69
-382.52
-340.51
-292.49
-245.58
-203.33
-165.93
-131.74
-98.79
-66.54
-35.49
-6.62
19.29
41.68
60.45
76.18
90.22
104.71
121.91
144.36
174.61
214.04
261.40
311.72
357.26
389.74
403.60
397.52
374.84
341.96
304.96
266.55
224.52
173.85
110.51
35.04
-46.78
-125.36
-190.52
-235.83
-257.69
-259.11
-248.82
-237.23
-227.66
-217.33
-201.50
-177.36
-145.57
-109.42
-73.28
-40.06
-9.86
19.77
51.81
87.82
128.33
172.78
220.43
269.73
317.76
359.65
389.39
401.41
392.21
363.27
320.02
270.55
222.54
181.00
147.43
116.05
83.20
47.60
12.20
-19.53
-45.49
-66.13
-82.71
-99.97
-122.05
-151.17
-188.58
-233.67
-287.47
-349.75
-415.39
-474.91
-515.65
-526.18
-501.57
-455.20
-396.32
-333.19
-272.02
-216.40
-165.74
-118.95
-74.85
-33.11
5.82
43.41
80.70
118.92
159.25
203.12
252.50
307.94
366.09
420.04
462.62
486.75
488.47
468.40
422.53
355.17
276.40
196.98
124.53
62.94
11.87
-28.53
-64.02
-100.71
-142.49
-191.00
-246.39
-306.19
-362.75
-403.55
-417.84
-402.70
-364.39
-319.76
-278.21
-242.88
-212.23
-181.29
-146.80
-108.60
-69.48
-32.79
0.51
32.50
66.13
103.66
146.43
194.46
246.29
298.96
348.39
390.01
419.08
431.11
423.14
395.83
353.39
302.08
247.97
195.36
147.24
101.26
57.62
18.33
-13.45
-35.81
-49.88
-58.96
-70.60
-91.42
-124.70
-169.39
-221.13
-272.00
-312.82
-335.87
-337.37
-318.78
-285.60
-244.90
-201.84
-158.49
-113.57
-64.35
-9.20
50.99
112.44
170.36
220.70
261.62
292.65
313.87
324.85
324.76
313.11
290.63
259.58
222.87
183.30
143.11
104.45
69.82
41.91
22.39
10.32
1.91
-8.24
-24.33
-46.88
-72.17
-94.31
-108.54
-113.99
-114.12
-115.04
-123.10
-143.24
-177.72
-225.91
-284.10
-345.60
-401.76
-444.25
-467.59
-470.91
-457.67
-433.49
-403.15
-368.65
-329.29
-283.60
-231.80
-176.70
-123.06
-75.08
-34.26
1.47
36.78
77.04
126.24
185.78
253.42
323.27
386.68
433.82
456.11
448.85
413.48
358.07
295.43
239.10
198.62
176.38
167.50
162.89
153.98
136.32
110.95
82.37
55.23
31.48
9.62
-14.22
-44.25
-82.80
-129.47
-180.96
-231.95
-276.35
-308.87
-326.53
-329.56
-321.01
-305.06
-285.00
-261.88
-234.74
-202.05
-163.67
-121.01
-76.08
-30.34
15.90
63.14
111.67
160.89
209.51
255.98
299.02
337.82
370.50
393.14
400.83
389.57
358.22
309.37
248.07
180.94
114.69
54.53
2.72
-40.69
-76.88
-107.62
-134.72
-160.08
-184.30
-202.94
-210.11
-202.71
-182.29
-154.32
-129.29
-112.10
-105.79
-112.77
-134.59
-169.33
-213.55
-260.47
-300.77
-321.32
-314.19
-281.52
-234.06
-189.42
-154.29
-129.37
-111.86
-96.53
-79.49
-58.66
-34.03
-6.25
23.87
56.42
89.96
122.58
153.96
183.81
211.99
238.53
264.58
292.07
323.72
359.62
396.35
428.87
449.70
451.82
431.79
391.78
338.31
280.87
227.52
175.47
124.08
72.88
22.95
-23.29
-59.75
-89.29
-118.05
-152.50
-196.84
-249.55
-304.99
-354.69
-390.14
-405.83
-398.30
-370.41
-331.08
-295.20
-266.71
-243.54
-220.76
-195.19
-166.08
-135.18
-104.81
-75.98
-47.94
-17.50
17.08
55.44
95.41
134.20
169.31
199.54
225.37
248.69
272.78
299.48
328.50
356.96
379.80
390.74
384.38
358.70
316.33
264.70
212.81
168.48
136.00
115.27
102.29
90.64
73.59
46.19
7.00
-41.27
-91.81
-135.30
-162.98
-169.42
-154.28
-121.99
-80.19
-37.78
-3.63
14.82
12.82
-9.70
-46.95
-88.59
-123.21
-142.70
-145.59
-136.64
-123.02
-110.33
-100.77
-93.42
-86.47
-79.38
-73.31
-70.17
-70.70
-73.14
-74.46
-72.32
-66.61
-59.91
-56.28
-59.45
-71.63
-92.23
-117.48
-138.85
-147.82
-139.65
-115.91
-83.73
-51.80
-26.43
-11.77
-7.04
-12.32
-29.50
-60.81
-106.20
-161.83
-217.65
-262.20
-286.50
-286.30
-264.68
-230.17
-192.63
-159.00
-131.02
-105.79
-79.11
-48.22
-11.64
29.08
70.94
110.79
146.93
179.22
208.84
237.18
265.26
295.91
331.44
373.10
419.60
467.11
509.13
538.67
550.47
529.70
471.03
380.48
274.38
170.89
82.76
13.69
-38.09
-76.07
-103.76
-122.33
-136.64
-152.47
-175.96
-210.53
-256.67
-310.50
-364.50
-404.72
-418.61
-401.49
-357.97
-305.61
-255.86
-214.78
-182.38
-154.40
-125.62
-93.21
-58.45
-23.78
7.96
36.41
62.64
89.10
118.48
152.51
191.00
231.82
273.10
311.35
342.42
361.22
363.98
350.16
322.65
286.08
238.08
181.49
121.70
65.17
16.66
-21.04
-46.89
-62.16
-70.13
-77.77
-90.89
-113.91
-148.97
-195.67
-250.84
-308.85
-357.81
-385.83
-385.61
-357.42
-309.78
-255.82
-207.05
-171.22
-145.57
-124.87
-105.36
-85.96
-66.85
-47.18
-26.25
-3.15
22.51
50.70
80.09
108.65
134.08
155.69
177.01
203.25
239.08
285.48
338.72
389.84
428.03
444.11
424.40
367.37
283.43
190.77
106.49
40.22
-8.02
-43.06
-69.49
-93.67
-118.51
-146.51
-180.36
-222.05
-270.53
-322.02
-364.53
-385.81
-379.51
-346.53
-296.54
-243.18
-200.13
-169.94
-149.41
-132.51
-114.31
-92.68
-66.26
-35.59
-2.46
30.94
63.35
94.01
123.46
152.53
181.85
214.34
252.68
297.44
345.94
392.61
429.91
451.39
453.79
427.59
372.45
296.79
214.14
136.98
72.37
21.46
-17.44
-46.28
-66.21
-79.75
-90.54
-103.50
-123.51
-154.21
-197.57
-253.14
-313.62
-368.35
-404.42
-411.83
-388.58
-340.99
-281.33
-222.99
-175.44
-141.58
-119.11
-103.12
-88.49
-73.46
-57.89
-42.36
-27.11
-11.76
4.53
21.98
40.57
60.26
81.40
105.56
136.00
175.33
223.04
274.21
319.84
349.87
356.88
331.99
277.20
204.05
128.53
63.81
15.43
-18.49
-43.41
-64.02
-85.25
-109.09
-136.37
-166.99
-199.19
-228.95
-250.95
-258.39
-247.85
-221.09
-182.84
-139.77
-97.95
-61.04
-29.80
-2.77
22.46
47.96
75.04
105.74
141.83
183.92
230.42
277.04
316.89
342.02
345.71
324.59
280.99
221.86
156.41
93.06
37.41
-9.02
-47.42
-79.97
-108.87
-133.98
-152.92
-162.88
-162.69
-153.20
-137.53
-119.36
-101.74
-88.86
-83.36
-87.79
-104.39
-133.58
-172.42
-215.60
-256.12
-281.71
-283.74
-260.76
-219.73
-173.01
-134.39
-106.48
-86.12
-67.98
-47.58
-24.32
0.15
24.22
47.13
69.78
94.47
122.53
154.27
189.56
227.20
265.87
304.33
339.25
365.25
376.64
368.89
341.09
296.99
243.21
181.40
117.17
56.49
4.14
-36.91
-65.73
-83.18
-91.32
-96.28
-105.58
-125.12
-157.92
-202.13
-250.92
-292.81
-316.98
-317.34
-295.22
-258.28
-216.43
-178.48
-148.65
-125.38
-103.31
-76.40
-40.24
6.55
62.16
122.18
179.17
224.01
248.43
247.57
222.42
180.78
135.56
101.11
88.38
100.53
132.05
171.07
203.42
217.70
208.98
179.44
136.32
88.21
41.50
-2.35
-41.26
-73.02
-95.50
-107.00
-107.18
-97.81
-83.29
-70.28
-64.50
-69.50
-86.95
-116.44
-155.47
-200.28
-246.25
-284.11
-304.43
-301.02
-274.61
-233.58
-189.69
-151.85
-124.79
-104.50
-85.57
-64.86
-42.07
-18.79
3.28
23.38
43.24
65.25
91.46
121.93
155.12
189.10
222.72
255.35
286.51
315.30
338.28
350.71
347.43
325.80
287.36
237.43
182.64
124.44
67.01
14.60
-28.64
-60.74
-81.49
-92.47
-96.80
-100.58
-110.27
-130.20
-162.53
-205.61
-255.88
-306.02
-347.50
-369.27
-364.84
-335.46
-289.86
-245.07
-208.31
-180.25
-156.90
-133.03
-105.65
-74.98
-43.17
-12.43
16.51
45.21
74.89
106.62
139.97
173.29
204.46
232.73
259.33
287.01
318.10
350.65
378.97
394.66
390.13
361.98
312.87
250.45
184.83
125.53
72.78
26.63
-13.17
-46.62
-74.19
-96.26
-118.16
-144.66
-176.44
-209.70
-235.94
-246.00
-234.31
-201.99
-156.77
-109.44
-71.26
-47.44
-34.63
-25.83
-13.73
6.89
38.37
80.02
127.86
175.38
213.88
234.56
231.80
206.09
165.09
121.17
86.25
66.73
61.49
63.73
65.11
58.95
41.87
13.88
-23.23
-67.32
-116.25
-167.58
-217.95
-262.99
-294.70
-306.60
-296.26
-266.62
-225.22
-181.08
-141.97
-115.73
-102.93
-102.73
-114.81
-138.28
-170.62
-207.64
-241.63
-265.01
-272.57
-262.67
-238.62
-206.92
-174.28
-144.23
-117.45
-92.48
-67.38
-40.80
-11.81
19.55
52.63
86.37
121.02
156.18
191.03
224.77
256.91
288.32
320.68
355.68
393.39
433.43
471.90
502.21
517.85
514.17
490.87
452.16
404.80
344.03
270.36
187.42
101.96
22.77
-43.78
-94.55
-129.74
-151.16
-166.02
-180.15
-199.04
-226.91
-264.78
-312.48
-368.04
-425.49
-473.73
-501.37
-499.73
-469.28
-426.27
-381.28
-340.20
-304.14
-269.76
-234.89
-199.59
-165.00
-133.50
-106.52
-81.94
-56.61
-27.47
7.07
45.55
83.61
116.28
139.30
151.25
154.94
154.50
154.23
157.48
165.74
178.48
193.50
206.85
213.42
208.79
189.92
157.57
117.47
79.31
53.62
47.79
63.05
94.10
131.72
166.13
190.61
203.15
205.62
201.53
193.76
183.66
171.48
157.77
144.02
132.89
126.85
127.06
132.53
140.50
147.86
152.55
154.27
153.93
152.57
150.25
146.01
138.51
127.05
112.31
96.15
80.78
67.66
56.63
45.63
31.46
10.94
-17.78
-54.48
-96.76
-140.90
-183.09
-220.65
-252.87
-281.27
-308.94
-339.13
-373.40
-410.12
-444.16
-468.08
-474.79
-460.21
-425.11
-374.74
-316.70
-258.03
-203.01
-152.50
-104.70
-56.72
-6.10
48.26
105.56
163.00
216.00
259.10
287.33
297.76
290.46
268.39
236.72
202.11
171.93
153.55
152.73
171.70
207.36
251.14
291.02
315.31
316.53
293.50
250.74
195.90
136.61
78.34
24.17
-24.41
-66.61
-101.90
-130.54
-154.28
-176.78
-202.55
-235.05
-274.39
-316.28
-352.65
-374.61
-376.16
-356.82
-322.15
-280.82
-240.86
-206.54
-177.68
-151.26
-124.09
-94.48
-61.63
-25.25
16.13
63.72
116.62
169.85
214.73
241.62
243.45
218.92
171.26
107.58
35.94
-36.12
-101.81
-154.77
-189.36
-202.06
-192.50
-165.76
-129.23
-90.53
-54.55
-22.15
8.77
40.98
71.23
101.26
125.19
137.59
135.43
119.79
95.64
69.85
48.48
34.27
27.05
23.43
21.16
20.42
23.69
33.83
51.50
73.80
95.04
109.91
114.89
111.01
102.70
95.26
91.97
92.75
94.76
94.25
89.21
79.64
67.97
57.33
49.99
46.32
44.95
43.46
39.57
32.18
21.43
9.08
-2.36
-10.58
-14.45
-14.55
-12.99
-12.55
-15.37
-22.07
-31.21
-39.98
-45.54
-46.32
-42.66
-36.38
-29.68
-24.06
-19.80
-16.34
-12.99
-9.69
-7.13
-6.28
-7.68
-10.98
-15.10
-18.68
-20.69
-20.67
-18.68
-14.92
-9.59
-2.97
4.44
11.62
17.27
20.23
20.10
17.57
14.09
11.20
9.64
9.08
8.34
6.16
2.05
-3.41
-8.79
-12.58
-13.90
-12.82
-10.15
-7.19
-5.55
-6.97
-13.12
-24.73
-40.78
-58.19
-72.59
-79.92
-78.09
-67.78
-52.11
-35.16
-20.52
-10.25
-4.76
-3.35
-4.82
-7.87
-11.18
-13.55
-14.04
-12.24
-8.39
-3.23
2.31
7.36
11.35
14.12
15.92
17.24
18.53
19.93
21.14
21.79
21.60
20.59
19.00
16.93
14.20
10.44
5.62
0.39
-3.80
-5.30
-3.02
2.90
10.99
19.05
24.96
27.56
26.95
24.40
21.67
20.28
20.95
23.43
26.83
30.22
32.95
34.65
34.94
33.18
28.74
21.52
12.41
3.26
-3.82
-7.66
-8.74
-9.11
-11.31
-16.85
-25.32
-34.44
-41.05
-42.67
-38.62
-30.41
-21.16
-14.31
-12.29
-15.45
-22.14
-29.46
-34.57
-35.64
-32.28
-25.26
-15.65
-4.30
8.47
22.47
37.15
51.26
62.95
70.30
72.01
68.00
59.53
48.92
38.83
31.40
27.56
26.84
27.79
28.68
28.21
25.66
20.65
12.86
2.18
-10.78
-24.22
-35.09
-40.02
-36.77
-25.42
-8.66
9.33
24.52
34.59
39.34
40.20
39.12
37.56
36.20
35.13
34.20
33.25
32.38
32.05
33.12
36.74
43.81
54.57
68.35
83.95
100.20
116.26
131.39
144.04
151.30
149.02
133.33
102.75
59.54
9.38
-40.47
-83.84
-117.65
-142.28
-160.83
-177.83
-198.03
-225.37
-261.85
-306.18
-352.86
-392.78
-415.62
-413.95
-386.34
-338.22
-279.74
-221.79
-171.67
-130.83
-95.33
-57.99
-12.32
44.86
112.02
182.77
246.73
292.07
308.81
292.07
245.07
177.67
104.86
43.52
7.73
3.92
28.92
70.81
113.07
141.96
149.26
134.89
105.52
69.64
32.22
-6.57
-49.50
-98.56
-150.55
-200.60
-243.95
-278.02
-296.24
-294.89
-273.21
-234.73
-197.30
-168.90
-153.06
-150.96
-157.62
-167.28
-173.46
-170.01
-153.72
-125.92
-90.07
-52.75
-19.70
7.14
29.52
50.97
75.13
104.32
139.46
181.25
227.12
271.22
305.43
321.58
315.15
288.97
253.55
223.75
213.14
226.46
257.73
293.23
317.50
319.61
296.87
253.77
198.28
137.92
77.04
17.55
-39.09
-90.76
-134.61
-167.01
-184.94
-188.00
-179.12
-163.67
-147.30
-136.52
-133.88
-139.98
-154.21
-174.82
-198.69
-220.40
-234.07
-234.92
-218.71
-187.17
-147.88
-110.24
-81.49
-60.99
-44.75
-28.48
-9.58
13.14
40.07
71.68
108.56
150.15
193.27
231.69
258.65
270.24
268.16
259.23
252.37
254.26
265.67
280.79
289.77
283.64
258.48
216.53
164.05
108.08
53.71
3.38
-42.31
-83.28
-118.93
-148.23
-171.07
-189.74
-209.00
-233.97
-267.22
-306.41
-344.10
-370.14
-375.81
-357.67
-319.13
-268.90
-217.26
-172.08
-136.47
-108.77
-84.19
-56.77
-20.88
27.60
89.72
161.93
235.70
299.05
339.74
349.04
324.57
271.39
201.08
128.56
68.94
34.34
31.01
57.33
103.23
152.83
189.96
204.15
193.20
162.64
121.69
78.23
35.82
-6.22
-49.63
-93.66
-133.17
-161.15
-172.38
-166.95
-154.01
-143.58
-143.09
-156.13
-181.51
-215.64
-255.08
-295.81
-333.23
-358.40
-363.08
-344.25
-306.43
-264.38
-224.91
-189.89
-157.91
-126.76
-95.94
-66.01
-37.75
-11.00
15.90
45.94
80.45
119.73
161.59
202.50
238.76
267.80
289.19
304.98
319.52
337.43
363.38
397.98
436.62
470.24
488.23
482.74
451.87
400.58
328.74
243.67
155.25
72.80
2.23
-55.05
-100.39
-134.47
-162.40
-189.68
-219.65
-254.57
-294.61
-336.87
-375.32
-400.36
-404.29
-385.84
-351.07
-309.50
-270.60
-240.46
-216.79
-195.47
-173.60
-150.93
-128.76
-108.15
-87.34
-63.40
-33.86
2.95
45.33
89.06
128.63
159.59
180.67
194.42
205.60
219.30
241.17
273.36
313.50
354.66
387.08
401.59
392.96
361.41
303.05
223.01
132.06
42.99
-34.81
-98.63
-151.53
-198.11
-239.57
-275.50
-300.81
-310.28
-301.40
-275.93
-239.29
-198.50
-160.00
-128.31
-104.79
-86.33
-68.92
-49.97
-29.35
-8.19
12.66
34.21
59.03
89.54
127.22
170.45
215.10
256.33
290.76
316.43
331.89
334.81
322.25
293.07
249.70
198.38
147.38
103.98
70.91
45.69
22.48
-4.17
-36.28
-71.98
-107.78
-142.22
-173.46
-199.80
-219.58
-231.92
-237.18
-239.07
-241.50
-248.11
-261.10
-279.71
-300.22
-315.74
-320.01
-309.43
-284.61
-249.81
-211.19
-174.02
-140.55
-109.89
-79.97
-49.55
-18.50
12.73
44.59
78.44
115.97
157.73
202.74
247.73
288.32
320.91
343.78
356.89
360.78
356.26
344.69
328.90
311.51
293.72
274.48
250.72
218.70
176.09
124.18
62.65
-2.69
-63.81
-113.95
-150.22
-174.21
-190.48
-204.60
-221.08
-241.47
-263.76
-284.09
-297.75
-300.54
-288.70
-260.63
-220.80
-178.21
-142.32
-117.09
-100.23
-86.88
-72.44
-55.13
-34.23
-9.85
18.42
51.36
89.07
129.24
167.18
197.37
215.62
221.48
218.41
212.66
210.39
214.61
224.02
234.08
239.02
234.00
216.61
186.64
145.59
95.98
40.55
-19.76
-80.12
-133.29
-172.60
-194.81
-201.44
-197.70
-190.25
-186.84
-191.32
-203.71
-220.97
-237.93
-248.52
-247.70
-233.40
-204.26
-165.36
-125.44
-92.74
-70.17
-54.78
-41.59
-26.58
-9.26
9.77
29.33
49.93
74.13
104.71
142.28
184.19
225.01
258.55
280.84
290.71
290.11
282.22
269.34
252.37
231.59
207.40
180.62
152.28
122.24
89.37
52.31
10.63
-36.05
-83.67
-125.72
-156.69
-174.38
-180.56
-178.79
-172.71
-166.90
-164.10
-166.12
-173.87
-186.24
-198.76
-204.67
-197.19
-170.24
-123.15
-59.55
14.62
93.17
168.03
229.83
269.34
279.98
260.39
215.24
154.69
91.09
34.93
-8.09
-37.08
-54.34
-63.11
-65.85
-64.25
-59.51
-53.05
-46.86
-43.07
-42.57
-44.53
-46.78
-46.74
-43.10
-36.34
-28.59
-22.73
-21.10
-23.88
-28.92
-32.70
-32.15
-26.14
-16.25
-5.99
0.68
0.80
-6.16
-18.68
-33.99
-48.79
-59.94
-64.99
-62.35
-51.15
-33.77
-14.10
4.09
18.55
29.85
40.81
53.56
67.98
80.52
86.01
79.18
58.41
27.22
-5.78
-29.94
-36.83
-23.42
6.20
41.31
68.66
77.84
65.34
36.44
2.19
-26.05
-41.78
-45.80
-44.84
-46.52
-53.19
-63.27
-70.50
-68.42
-55.38
-35.90
-19.08
-11.90
-16.91
-31.83
-51.80
-71.30
-86.28
-94.47
-94.77
-84.73
-65.96
-42.82
-20.59
-3.49
7.20
12.87
16.01
18.37
19.95
19.12
15.08
8.97
4.01
4.18
11.84
26.56
45.55
65.11
81.26
90.94
92.84
86.93
74.93
60.31
47.71
41.52
44.36
55.85
70.81
84.11
91.09
89.98
82.67
72.92
64.13
57.94
55.72
55.74
56.90
58.14
58.43
56.67
52.21
44.86
34.56
20.64
0.64
-26.93
-62.56
-104.66
-148.98
-189.56
-220.32
-237.29
-239.39
-228.22
-206.04
-174.93
-136.47
-91.71
-42.23
9.22
58.66
101.95
136.34
161.89
180.72
194.18
201.53
199.59
184.98
156.95
119.12
78.38
41.74
13.51
-7.27
-24.47
-42.01
-61.67
-83.30
-106.58
-132.63
-163.81
-196.34
-223.76
-237.56
-231.79
-206.58
-168.18
-126.00
-89.18
-66.86
-59.80
-66.12
-81.19
-98.13
-109.19
-108.21
-92.77
-63.08
-24.55
16.19
53.02
83.50
109.55
135.67
165.82
200.93
237.82
269.77
290.07
292.95
276.19
242.52
199.51
157.57
126.44
111.94
113.60
126.23
140.92
148.65
143.03
121.46
84.55
34.79
-24.42
-89.46
-153.06
-204.05
-231.69
-231.34
-206.41
-165.95
-120.35
-78.57
-49.10
-33.64
-31.86
-42.09
-61.38
-85.96
-111.30
-132.93
-141.84
-131.77
-102.05
-59.53
-15.03
22.68
50.51
71.51
91.23
110.95
128.24
137.48
133.31
114.40
85.46
54.47
29.49
16.76
17.67
27.95
40.50
48.90
50.42
46.85
40.34
31.31
17.23
-6.34
-43.23
-94.01
-154.96
-218.95
-271.38
-299.36
-296.21
-264.56
-214.28
-157.31
-103.82
-61.03
-36.03
-28.71
-37.34
-57.26
-80.39
-96.80
-97.93
-80.13
-44.33
1.37
46.08
79.08
95.18
97.05
93.91
97.22
115.02
148.04
189.04
226.83
249.64
250.31
228.68
191.07
147.47
107.59
78.67
63.92
63.07
70.92
79.23
80.11
69.39
48.36
22.58
-1.62
-21.13
-37.04
-54.50
-78.59
-109.34
-140.54
-161.88
-165.47
-152.19
-135.03
-126.47
-134.04
-158.30
-193.61
-229.30
-254.84
-263.05
-252.20
-226.13
-191.77
-156.83
-126.86
-103.02
-82.53
-60.61
-33.89
-1.51
36.06
78.74
126.05
175.60
221.78
256.26
271.67
264.62
238.74
204.81
177.34
168.49
183.42
218.87
265.36
311.81
347.27
363.35
355.73
324.67
274.41
211.85
144.59
73.28
3.25
-58.76
-107.05
-138.86
-154.67
-157.65
-153.04
-147.67
-147.26
-154.38
-170.15
-194.54
-226.17
-262.31
-299.60
-329.39
-342.95
-334.69
-305.13
-262.19
-216.86
-177.50
-147.11
-121.88
-98.37
-76.12
-56.47
-40.03
-25.40
-10.30
8.98
36.37
72.56
114.08
154.28
186.43
206.74
215.33
215.81
214.43
219.38
236.65
267.21
306.14
343.99
369.63
373.98
353.21
300.16
219.79
127.20
41.40
-24.08
-66.84
-94.09
-115.32
-138.93
-166.97
-194.60
-214.76
-221.82
-213.68
-190.33
-155.02
-113.23
-71.24
-34.50
-5.26
16.33
31.52
42.55
52.17
62.57
74.21
84.80
89.81
85.30
69.41
43.65
13.18
-14.69
-32.96
-37.45
-28.34
-9.89
12.07
31.80
44.47
47.17
38.94
19.99
-9.00
-47.05
-92.64
-140.08
-179.61
-201.67
-201.09
-179.89
-146.05
-109.69
-79.26
-60.03
-54.24
-58.93
-70.37
-84.56
-97.16
-103.82
-101.29
-85.68
-58.98
-27.87
-0.41
17.18
23.46
21.43
15.97
10.64
7.33
4.80
2.71
3.09
8.40
20.61
40.35
66.87
97.96
130.85
162.93
190.07
210.09
221.96
226.45
225.97
223.25
218.61
209.35
190.54
158.04
111.38
54.06
-6.80
-63.82
-108.03
-134.04
-142.26
-138.12
-131.04
-126.05
-125.64
-131.31
-144.34
-163.80
-188.06
-213.04
-232.59
-236.23
-217.23
-177.62
-127.74
-80.59
-45.22
-24.29
-14.79
-11.56
-9.72
-7.14
-3.43
2.07
11.25
26.53
49.06
77.97
110.62
141.90
167.88
186.89
199.69
208.42
214.61
218.29
218.29
212.71
199.76
178.30
147.62
107.74
59.77
5.96
-50.65
-102.64
-141.51
-161.82
-163.71
-152.33
-134.35
-115.44
-101.69
-95.72
-98.76
-110.97
-130.62
-153.35
-173.29
-184.71
-179.50
-155.40
-117.44
-76.00
-41.75
-20.58
-10.77
-6.14
0.15
12.05
31.43
55.59
79.26
97.69
106.81
106.76
101.18
95.44
94.10
98.93
109.74
126.14
148.86
178.62
212.99
244.52
262.70
258.40
228.07
175.78
111.19
42.60
-19.47
-66.88
-96.84
-111.38
-114.07
-108.09
-96.11
-82.78
-72.06
-67.65
-73.04
-90.34
-119.16
-156.04
-195.47
-226.27
-238.21
-225.41
-189.86
-141.49
-93.28
-55.13
-30.54
-17.05
-9.71
-5.19
-2.23
-0.95
-1.27
-1.49
1.08
8.67
22.14
40.00
58.73
74.68
85.64
91.56
94.72
98.86
107.75
124.27
148.38
174.11
193.17
197.16
180.58
143.22
90.17
27.80
-33.25
-82.93
-115.68
-131.80
-135.26
-130.43
-122.07
-113.06
-107.29
-109.30
-123.07
-149.18
-183.83
-217.34
-238.32
-235.49
-205.84
-157.00
-103.46
-60.85
-34.22
-20.70
-12.42
-1.49
18.00
48.08
87.25
131.99
177.44
217.83
246.12
256.82
248.82
227.15
201.94
184.87
184.33
201.55
229.66
255.44
265.67
252.51
215.99
162.13
99.34
34.52
-29.68
-88.98
-138.64
-174.02
-192.05
-192.27
-177.56
-153.68
-129.87
-112.66
-106.10
-112.28
-130.54
-158.08
-190.46
-222.70
-246.09
-252.98
-239.30
-207.56
-166.77
-127.46
-97.37
-78.68
-68.61
-61.83
-54.52
-45.35
-34.82
-23.85
-11.34
4.66
26.09
54.10
86.94
121.78
155.94
187.98
217.98
248.43
280.81
313.55
341.22
355.93
350.15
320.29
268.26
194.61
108.67
23.83
-47.73
-99.21
-130.30
-144.90
-147.89
-144.23
-140.06
-139.89
-147.42
-164.31
-188.70
-215.17
-236.07
-243.86
-231.87
-201.36
-160.29
-120.38
-91.23
-75.16
-67.52
-61.51
-50.77
-32.67
-8.57
17.83
43.99
69.47
95.60
124.00
155.76
192.74
235.33
281.31
326.22
363.69
386.73
389.61
369.77
320.77
246.06
157.47
70.44
-2.58
-56.42
-92.48
-114.97
-127.74
-133.24
-131.77
-124.41
-113.84
-103.52
-96.06
-92.35
-91.58
-92.02
-92.08
-89.66
-83.87
-75.30
-65.63
-56.86
-50.49
-47.19
-46.79
-48.34
-49.59
-48.42
-43.68
-35.79
-26.40
-17.60
-11.18
-8.08
-8.08
-10.01
-12.84
-15.78
-17.64
-16.40
-9.22
5.47
25.99
46.82
60.60
61.33
47.67
23.94
-2.04
-22.63
-33.49
-35.50
-33.00
-29.86
-27.21
-23.18
-15.37
-3.75
9.34
19.33
21.51
12.76
-6.58
-32.66
-58.59
-75.61
-77.39
-61.81
-32.13
3.86
36.44
57.41
62.68
53.39
34.87
13.90
-3.75
-14.74
-18.41
-16.21
-10.61
-4.57
-0.76
-0.20
-2.68
-6.13
-7.43
-3.34
7.57
23.86
40.93
52.83
54.53
44.08
23.89
-0.58
-23.21
-39.57
-47.10
-46.85
-41.29
-32.62
-22.09
-9.99
3.12
15.83
25.60
30.23
28.06
19.12
4.67
-13.73
-34.69
-56.76
-76.85
-91.31
-95.94
-88.22
-68.74
-41.78
-13.91
8.61
22.32
27.39
26.51
23.07
19.22
15.58
11.88
7.93
4.10
1.15
-0.38
-0.69
-0.41
-0.27
-0.85
-2.28
-4.52
-7.53
-11.21
-15.29
-19.07
-21.32
-20.73
-16.34
-8.16
2.69
14.23
24.67
32.90
39.05
44.32
50.00
56.99
65.62
75.80
87.03
98.00
105.81
105.75
92.90
64.99
25.33
-16.66
-48.34
-59.39
-47.20
-18.73
12.41
32.65
34.77
21.13
1.20
-14.40
-19.87
-16.25
-9.03
-3.40
-0.90
0.33
2.68
5.62
5.36
-2.47
-18.69
-38.42
-52.49
-51.94
-33.20
-0.37
36.44
65.72
79.35
75.30
57.25
32.28
8.26
-8.53
-14.85
-10.39
3.07
22.91
46.25
70.07
90.34
102.66
103.51
91.64
69.86
44.82
24.94
16.94
23.15
40.82
63.94
85.74
99.91
102.54
92.57
72.27
46.96
23.87
9.81
8.47
18.94
34.43
46.40
47.65
34.98
8.95
-28.12
-73.78
-125.29
-178.42
-228.73
-270.32
-298.71
-313.01
-317.00
-317.83
-322.70
-335.24
-342.66
-332.08
-294.43
-230.85
-151.97
-71.99
-2.13
52.43
92.16
120.96
139.59
150.10
152.34
145.34
128.64
102.48
67.67
25.05
-20.87
-67.05
-109.07
-141.31
-157.14
-151.85
-125.37
-83.25
-34.88
10.30
44.91
66.87
78.16
82.99
84.60
84.26
81.86
77.85
74.12
72.53
74.76
81.33
92.43
107.55
125.39
143.75
159.21
167.38
163.71
145.81
111.39
66.04
19.61
-18.29
-42.38
-52.57
-52.47
-46.70
-38.73
-30.78
-24.62
-23.08
-29.23
-44.76
-67.83
-92.53
-110.82
-115.67
-103.01
-76.40
-45.52
-21.36
-11.28
-16.30
-31.66
-50.28
-66.31
-77.18
-83.30
-86.46
-88.06
-88.39
-87.04
-83.47
-77.87
-71.09
-64.50
-59.22
-55.76
-53.89
-52.91
-52.03
-50.26
-47.02
-42.16
-35.74
-27.92
-18.58
-7.10
7.65
24.39
42.92
63.04
84.59
107.52
132.03
158.45
186.75
215.79
242.89
264.61
277.35
278.84
269.05
250.19
225.81
199.46
173.52
148.91
125.84
104.14
84.01
66.08
51.20
39.83
31.75
26.02
21.51
17.63
14.47
12.90
13.98
18.32
25.66
34.97
44.86
54.28
62.88
70.80
78.33
85.53
92.11
97.56
101.23
102.31
99.97
93.55
82.80
67.98
49.75
28.71
4.89
-22.03
-51.88
-82.94
-111.79
-134.31
-147.25
-149.28
-140.91
-123.49
-98.43
-67.33
-32.71
1.67
31.79
55.35
73.44
90.21
110.65
137.30
168.45
198.91
222.91
237.19
242.30
241.14
236.17
227.67
214.09
193.85
167.21
136.65
105.31
75.03
45.06
12.90
-23.51
-63.77
-104.33
-139.93
-166.31
-182.60
-191.85
-199.50
-210.75
-228.00
-250.16
-273.77
-294.90
-311.23
-323.16
-333.67
-346.97
-366.15
-390.97
-416.70
-434.80
-435.57
-411.78
-362.15
-292.48
-213.94
-139.17
-78.31
-36.86
-15.84
-13.13
-24.51
-43.70
-61.92
-69.11
-57.13
-23.70
25.42
78.12
120.74
143.91
146.39
134.68
119.40
110.73
115.47
136.38
172.83
221.13
274.42
322.88
355.45
362.97
341.30
293.09
226.63
152.75
81.13
18.22
-33.40
-74.13
-106.06
-132.06
-155.44
-180.15
-210.11
-247.81
-292.65
-339.95
-381.79
-409.28
-416.26
-401.86
-371.00
-332.22
-293.89
-260.72
-232.27
-204.32
-171.96
-132.96
-89.22
-46.17
-10.58
11.84
18.33
9.69
-10.13
-35.15
-58.86
-75.50
-81.23
-75.00
-58.64
-36.02
-11.61
11.22
31.50
50.61
71.35
96.54
127.71
164.46
203.79
240.17
266.45
275.39
262.34
227.50
176.92
121.58
74.13
44.98
39.15
54.94
85.23
120.27
151.14
172.33
182.66
184.33
180.98
175.71
169.91
163.28
154.83
144.17
132.01
119.77
108.67
98.74
88.95
77.97
65.61
53.47
44.54
42.01
47.90
61.74
80.56
99.96
115.85
126.60
133.74
141.05
152.41
169.05
188.11
203.20
206.91
193.81
162.78
117.44
64.17
9.51
-42.19
-89.32
-131.79
-169.29
-200.55
-223.72
-237.82
-243.83
-244.37
-241.85
-236.31
-224.67
-202.38
-167.27
-121.77
-73.03
-30.06
0.56
17.61
25.25
30.20
37.72
47.83
56.44
58.30
50.65
35.33
17.99
5.23
1.03
4.46
8.61
5.54
-8.74
-31.48
-54.19
-67.71
-67.99
-58.94
-50.65
-56.33
-84.46
-134.69
-199.06
-266.35
-327.79
-380.08
-424.26
-448.00
-440.02
-393.67
-312.04
-208.55
-100.53
-2.71
76.05
133.22
171.41
193.97
203.54
203.82
196.37
181.29
157.80
124.99
82.44
31.02
-24.42
-77.50
-119.98
-144.30
-145.74
-124.96
-88.06
-44.55
-3.30
30.25
54.25
72.11
86.37
97.64
104.68
106.53
104.06
100.60
101.50
111.33
132.95
165.97
207.78
251.96
291.86
321.23
330.78
315.41
276.20
221.70
163.91
112.89
72.68
42.04
17.40
-3.48
-19.61
-28.98
-31.71
-31.81
-35.67
-49.58
-76.99
-117.98
-169.99
-224.84
-273.83
-308.55
-322.97
-314.79
-286.58
-244.77
-197.73
-153.13
-115.04
-85.07
-60.74
-40.74
-25.40
-16.24
-13.49
-14.99
-16.98
-15.34
-8.39
2.52
13.56
21.00
21.49
16.20
9.97
8.92
18.68
42.54
81.06
131.71
189.53
246.78
289.29
303.17
279.58
220.35
137.97
49.27
-33.00
-100.78
-158.74
-211.63
-258.58
-293.97
-310.62
-304.34
-276.11
-233.28
-186.28
-145.02
-114.12
-91.50
-71.96
-50.27
-23.65
7.74
41.83
76.74
111.15
145.19
180.83
218.22
255.41
289.01
315.99
335.26
348.73
360.07
373.66
394.23
421.86
451.22
473.24
478.66
461.55
421.91
364.76
286.67
193.00
93.51
-0.93
-81.90
-145.30
-191.05
-221.30
-239.38
-252.44
-265.75
-283.91
-309.64
-342.52
-378.45
-411.19
-429.53
-425.41
-398.06
-353.23
-302.15
-256.04
-221.74
-197.43
-178.14
-158.36
-135.21
-107.97
-76.71
-41.73
-3.46
37.36
79.46
120.74
159.92
195.44
226.70
255.14
283.46
313.94
347.07
380.20
407.32
421.86
417.86
392.68
348.60
291.95
230.21
169.81
114.33
60.62
8.56
-39.71
-80.39
-109.78
-125.99
-132.30
-134.12
-137.35
-147.42
-166.94
-197.42
-238.66
-288.00
-336.60
-372.45
-383.76
-364.62
-318.67
-257.10
-194.29
-141.46
-103.27
-77.86
-60.31
-45.85
-31.93
-18.31
-5.55
5.92
16.52
27.11
38.45
50.27
61.81
72.97
84.89
100.29
120.56
145.88
173.31
196.77
208.66
199.86
167.27
115.84
57.09
3.81
-35.58
-59.40
-71.30
-76.65
-79.21
-80.01
-78.90
-76.12
-72.79
-70.30
-69.49
-70.22
-71.26
-70.22
-63.67
-48.20
-21.90
14.22
55.89
96.50
129.47
150.60
158.83
155.56
142.83
122.32
95.87
66.53
38.89
17.52
4.71
-1.16
-4.95
-11.82
-24.28
-40.94
-57.02
-66.80
-66.32
-54.68
-34.09
-8.66
16.76
37.76
51.26
56.29
54.20
47.77
39.81
31.80
23.73
14.79
4.76
-5.35
-13.47
-17.71
-17.82
-15.32
-12.93
-13.35
-17.77
-25.26
-33.37
-39.54
-42.29
-41.75
-38.88
-34.62
-29.36
-23.28
-16.99
-11.80
-9.51
-11.41
-17.52
-26.15
-34.20
-38.66
-37.92
-32.50
-24.75
-17.83
-14.19
-14.92
-19.37
-25.58
-31.38
-35.30
-36.85
-36.26
-33.86
-29.59
-22.07
-11.74
0.75
14.06
26.42
36.40
43.46
47.86
50.41
51.52
51.03
48.35
42.57
33.15
20.51
5.73
-10.36
-26.98
-45.01
-64.84
-84.33
-98.62
-101.65
-88.96
-60.50
-21.77
18.44
51.81
73.76
84.15
84.95
77.48
61.84
38.57
11.24
-12.60
-24.46
-19.96
-2.52
17.02
25.70
15.71
-11.25
-45.42
-74.06
-87.81
-84.65
-69.18
-47.99
-28.06
-11.88
1.56
14.23
26.92
38.37
45.87
47.39
42.16
30.86
15.33
-2.96
-23.50
-46.05
-68.89
-89.02
-101.71
-102.53
-89.80
-65.92
-37.03
-10.61
7.84
16.81
18.66
17.82
18.16
21.32
26.68
32.59
37.67
41.55
44.75
47.85
51.21
55.00
59.67
65.87
74.00
83.24
90.87
92.84
85.39
67.41
41.23
13.65
-7.99
-18.97
-18.87
-11.17
-0.99
7.52
12.86
15.81
17.92
19.63
20.11
17.57
10.63
-1.01
-16.69
-35.43
-56.44
-79.12
-101.73
-121.58
-134.52
-136.39
-125.27
-102.93
-74.68
-47.39
-26.73
-15.15
-11.56
-12.66
-15.00
-16.48
-16.59
-15.64
-13.63
-10.14
-4.61
2.85
11.39
19.64
26.24
30.26
31.69
31.15
29.61
28.09
27.26
27.49
28.83
31.09
33.92
36.97
39.87
42.53
45.24
48.56
53.27
60.07
69.12
79.86
91.00
100.76
107.82
111.73
112.97
112.86
112.88
114.31
118.08
124.85
134.15
144.34
152.29
153.25
142.84
119.06
83.89
43.13
4.35
-27.09
-49.40
-64.18
-75.24
-85.69
-96.67
-107.69
-117.98
-127.92
-140.68
-160.11
-184.67
-211.66
-236.74
-255.76
-266.39
-268.99
-258.88
-235.78
-202.49
-163.39
-123.20
-84.41
-47.69
-13.27
17.76
41.75
54.83
52.99
34.42
0.67
-42.40
-86.01
-121.14
-141.67
-143.09
-127.79
-102.70
-75.21
-50.34
-28.61
-7.12
17.77
48.04
83.28
120.59
156.94
190.58
220.57
246.07
266.17
280.72
291.64
302.20
315.12
329.90
341.92
343.83
328.91
294.57
243.79
183.65
121.68
63.68
11.92
-33.28
-71.47
-101.29
-121.14
-130.99
-133.50
-134.77
-141.34
-159.39
-191.71
-236.12
-285.32
-328.94
-357.12
-364.17
-351.13
-323.27
-289.30
-256.73
-229.00
-204.77
-179.17
-146.89
-100.69
-47.48
8.27
58.46
95.61
116.06
121.54
118.41
114.10
113.38
116.87
124.71
136.59
153.49
176.65
204.90
233.23
253.19
255.80
235.76
195.74
143.32
87.44
35.09
-11.28
-48.53
-73.67
-85.92
-87.25
-80.73
-70.62
-62.57
-60.33
-66.80
-83.62
-110.87
-147.78
-191.73
-235.54
-267.14
-276.23
-259.50
-223.01
-182.38
-145.92
-117.05
-95.34
-77.52
-59.79
-39.80
-16.37
11.42
45.54
88.46
139.26
192.20
237.66
265.71
268.91
246.95
208.29
167.88
141.60
139.18
161.23
200.64
247.06
288.91
316.57
324.23
310.32
277.02
228.87
171.76
105.84
37.88
-23.14
-69.83
-98.83
-111.04
-110.64
-103.18
-95.94
-95.47
-105.25
-126.73
-159.16
-199.51
-242.08
-280.18
-303.85
-305.40
-283.56
-244.41
-199.21
-158.34
-127.58
-104.25
-84.87
-67.35
-51.78
-38.80
-28.24
-18.82
-8.63
4.72
22.09
41.70
60.93
77.19
89.49
99.04
108.64
121.94
143.45
175.27
214.76
255.13
286.90
301.30
293.42
263.83
211.10
142.91
72.33
11.64
-32.51
-60.08
-74.49
-79.41
-77.98
-74.72
-74.64
-83.79
-107.14
-145.06
-191.68
-236.52
-266.74
-274.00
-258.14
-225.84
-187.99
-154.87
-131.32
-115.19
-99.16
-75.21
-38.81
9.95
67.85
129.26
186.06
229.00
249.98
245.52
219.32
181.87
147.82
130.45
136.08
159.95
188.56
206.32
202.65
175.56
130.41
76.13
17.94
-36.30
-79.60
-108.24
-121.64
-120.83
-107.83
-87.44
-65.91
-51.44
-50.94
-68.70
-104.63
-153.99
-207.54
-252.03
-275.26
-271.29
-243.86
-204.05
-165.29
-136.93
-120.81
-112.48
-105.54
-95.50
-82.13
-67.70
-53.44
-38.56
-20.58
3.33
34.77
72.35
112.32
149.69
180.49
203.49
219.75
231.88
243.15
256.41
273.79
294.15
312.52
321.62
314.93
288.95
244.91
188.79
123.92
59.06
3.65
-36.85
-62.21
-75.58
-80.66
-80.85
-79.09
-79.39
-86.33
-105.39
-140.95
-192.93
-252.92
-306.03
-336.10
-333.21
-298.88
-244.47
-186.11
-137.90
-107.73
-91.78
-82.08
-70.89
-53.64
-29.46
0.82
36.24
74.49
112.71
147.48
174.19
188.86
190.25
181.76
171.25
167.65
175.21
190.78
205.00
206.21
186.42
144.95
88.48
25.10
-33.66
-78.65
-106.34
-118.74
-120.36
-114.35
-101.89
-83.78
-62.65
-42.92
-31.55
-35.63
-59.23
-101.31
-155.30
-211.03
-258.01
-286.54
-292.01
-276.95
-249.34
-218.33
-189.77
-164.45
-138.67
-107.35
-67.25
-18.74
34.46
87.44
136.21
178.82
213.95
240.45
257.94
268.07
274.89
283.54
297.64
316.65
335.81
346.59
340.71
313.96
267.81
208.38
143.22
78.49
14.78
-44.16
-93.53
-128.62
-146.51
-147.49
-135.99
-119.46
-106.52
-104.79
-117.92
-145.84
-184.29
-225.49
-260.58
-279.78
-277.17
-254.10
-219.43
-184.22
-157.00
-140.65
-129.63
-117.19
-99.07
-75.29
-48.56
-22.31
2.74
27.83
55.27
87.20
124.34
166.40
211.50
256.63
297.36
329.41
347.94
349.19
332.14
298.91
254.42
204.02
152.07
96.47
38.60
-17.63
-66.42
-102.09
-121.64
-125.72
-118.81
-107.10
-96.86
-91.63
-93.73
-104.59
-124.67
-153.21
-187.93
-225.49
-258.31
-277.71
-277.40
-257.79
-225.78
-190.92
-161.70
-139.43
-122.53
-108.28
-94.51
-79.52
-62.14
-41.82
-17.63
12.00
47.39
86.18
124.64
158.75
185.72
204.82
217.82
228.92
244.23
267.59
297.64
327.79
348.11
349.07
325.44
278.65
209.07
126.31
44.40
-24.47
-74.41
-106.59
-126.39
-138.89
-149.65
-162.90
-180.55
-203.08
-229.17
-255.01
-274.04
-279.84
-269.31
-244.73
-212.51
-179.37
-150.06
-126.29
-106.48
-87.09
-64.62
-37.14
-4.37
33.40
76.37
124.50
175.42
224.19
264.74
292.34
306.21
310.43
312.14
317.55
328.07
337.62
335.62
312.69
265.62
199.03
123.40
50.48
-15.04
-68.89
-109.56
-137.42
-153.52
-159.44
-158.36
-154.57
-152.64
-156.42
-166.82
-182.32
-197.97
-206.90
-201.79
-180.12
-146.08
-108.97
-78.14
-57.16
-44.13
-35.30
-27.16
-17.71
-7.23
3.93
15.97
29.65
45.79
63.66
80.60
93.09
97.63
92.35
78.73
62.04
50.12
50.55
67.08
97.02
131.77
159.11
167.60
151.02
110.44
53.03
-11.66
-75.13
-131.56
-174.84
-200.48
-206.80
-195.25
-169.68
-135.23
-100.24
-70.70
-52.70
-50.88
-66.92
-98.17
-137.62
-175.01
-198.31
-199.28
-177.33
-140.93
-103.09
-74.91
-60.95
-56.70
-54.36
-47.08
-32.02
-9.74
16.80
45.52
76.17
109.23
144.35
178.93
209.22
231.72
246.17
255.81
265.87
280.20
297.55
311.38
312.24
292.47
249.57
187.46
114.01
37.92
-33.77
-97.34
-151.06
-193.32
-220.91
-231.21
-224.21
-204.65
-183.93
-170.19
-167.35
-174.02
-184.69
-190.20
-182.54
-157.39
-116.63
-67.24
-20.73
11.50
26.74
29.91
29.59
32.29
43.13
63.93
92.78
125.18
155.35
178.57
191.02
191.07
179.40
159.24
135.27
112.54
96.21
90.46
98.10
117.10
140.97
160.51
167.61
157.48
129.29
85.89
32.03
-26.16
-84.53
-139.97
-189.80
-230.99
-257.81
-265.76
-253.99
-234.21
-215.61
-205.18
-203.09
-207.40
-212.79
-212.18
-199.47
-171.92
-131.60
-81.32
-30.45
10.20
33.65
41.72
41.98
41.96
46.76
58.46
78.30
104.70
134.36
162.44
183.77
193.55
188.78
169.18
138.50
104.71
77.02
63.81
69.29
91.49
121.89
148.37
159.13
147.27
112.71
60.61
-1.12
-65.18
-126.67
-183.11
-229.93
-261.55
-272.98
-263.09
-235.67
-197.82
-157.47
-121.39
-96.32
-83.66
-83.11
-92.56
-108.38
-125.47
-138.20
-142.26
-135.02
-116.61
-91.41
-67.19
-47.57
-33.00
-21.59
-10.29
3.28
19.95
39.17
60.41
83.91
111.20
143.43
180.83
222.24
265.04
305.50
339.79
364.89
378.75
380.54
369.73
346.41
311.57
266.73
213.50
153.76
89.81
24.49
-38.68
-96.41
-145.93
-185.09
-211.39
-223.73
-223.03
-212.51
-199.22
-188.23
-183.34
-186.81
-198.61
-215.34
-231.40
-239.82
-235.08
-213.74
-179.00
-140.16
-108.05
-86.38
-73.20
-64.57
-55.88
-43.66
-26.38
-3.95
23.39
55.74
92.95
132.58
169.23
196.13
207.54
201.73
182.24
156.35
131.67
112.43
97.88
84.30
69.13
53.75
43.19
43.01
55.68
78.72
105.66
128.86
142.59
144.41
134.56
114.12
84.02
45.41
0.34
-48.08
-96.71
-143.55
-187.66
-228.31
-263.66
-290.19
-303.65
-301.12
-282.76
-252.27
-215.53
-178.04
-143.04
-111.07
-80.84
-50.64
-19.15
14.91
53.23
97.59
148.69
204.55
259.64
305.63
333.31
335.30
308.98
258.08
192.15
124.93
71.11
42.47
44.47
74.11
120.57
168.70
203.95
216.35
202.89
166.85
115.30
55.98
-5.17
-64.64
-121.49
-171.78
-210.16
-232.00
-236.05
-225.02
-204.42
-181.04
-162.73
-153.93
-155.98
-167.40
-183.99
-199.92
-209.11
-207.14
-192.16
-165.87
-134.77
-107.60
-90.25
-81.11
-74.11
-63.84
-47.16
-24.70
-0.29
22.13
41.47
60.12
81.99
109.56
142.29
176.96
208.79
233.02
245.71
243.84
225.43
190.46
142.45
90.03
46.41
25.00
33.52
69.56
120.50
168.19
196.11
195.76
168.89
125.06
75.88
29.64
-11.29
-49.57
-89.36
-132.29
-175.55
-212.36
-234.73
-237.01
-218.40
-183.21
-139.62
-97.49
-65.84
-50.62
-53.33
-70.44
-94.17
-114.58
-122.36
-112.25
-84.29
-42.71
6.88
60.49
116.69
174.88
232.45
283.56
320.03
335.31
328.08
303.20
268.84
232.31
196.81
161.39
123.85
82.95
39.98
-2.29
-41.65
-78.17
-113.98
-151.72
-192.84
-233.63
-266.86
-284.62
-282.99
-263.49
-231.41
-192.74
-152.40
-116.67
-88.14
-70.02
-65.45
-75.91
-99.05
-129.23
-158.92
-178.08
-179.27
-160.83
-129.14
-95.20
-69.03
-54.43
-49.00
-47.44
-45.25
-40.39
-32.20
-20.92
-6.25
11.77
34.33
61.36
91.06
120.90
148.14
171.29
190.18
206.22
222.18
242.42
268.55
297.54
322.16
332.93
321.98
286.10
228.32
150.75
64.75
-15.56
-78.94
-120.96
-144.12
-154.12
-156.62
-156.47
-158.01
-163.83
-176.89
-198.72
-226.99
-255.79
-277.50
-283.29
-269.78
-243.56
-212.14
-182.12
-158.36
-141.13
-127.11
-111.32
-89.63
-60.79
-25.93
13.72
56.21
99.35
142.24
184.11
224.62
263.80
301.85
339.35
377.17
414.23
446.34
467.82
471.67
452.52
409.20
345.51
269.33
190.05
115.27
43.24
-25.01
-87.01
-138.87
-176.87
-199.16
-206.60
-202.64
-192.20
-181.14
-172.95
-170.42
-175.31
-187.95
-206.70
-227.49
-245.09
-252.04
-243.40
-218.99
-185.36
-152.23
-127.66
-114.57
-109.38
-106.71
-102.22
-94.23
-82.45
-67.48
-49.36
-26.97
-0.09
31.68
67.27
104.90
142.37
178.64
213.88
249.10
284.54
317.85
344.59
357.84
351.40
322.34
272.53
207.82
135.87
63.47
-8.27
-75.45
-133.18
-176.42
-201.85
-209.53
-202.63
-186.29
-166.20
-148.78
-137.24
-134.15
-140.70
-155.48
-174.37
-190.93
-198.40
-190.34
-166.19
-131.69
-97.29
-71.83
-57.48
-51.76
-49.40
-44.57
-34.02
-16.34
8.87
41.12
79.42
122.00
164.61
201.46
227.35
239.88
240.90
236.60
234.58
240.40
254.66
270.71
277.65
265.25
228.47
169.08
94.67
15.00
-63.34
-131.58
-183.01
-214.25
-225.55
-219.52
-200.22
-172.75
-143.63
-120.56
-107.46
-105.77
-113.41
-124.43
-130.77
-125.41
-104.08
-69.56
-31.07
0.56
17.32
17.56
6.00
-7.92
-17.93
-21.04
-17.11
-7.04
8.94
31.02
58.40
88.98
117.49
138.52
148.46
146.64
135.93
122.35
113.29
113.78
124.33
140.23
153.03
154.12
137.57
102.12
51.50
-6.88
-66.08
-121.54
-171.78
-214.68
-245.63
-259.43
-254.09
-238.84
-220.92
-205.37
-194.52
-185.88
-175.71
-159.11
-132.39
-95.57
-51.65
-7.80
27.76
52.92
71.07
86.35
98.80
105.77
102.97
88.19
65.20
43.35
33.69
42.94
69.47
103.91
133.48
147.69
143.01
124.38
102.02
86.33
83.62
94.69
116.08
142.11
165.56
178.91
176.10
154.18
113.71
58.34
-6.33
-74.30
-139.59
-194.78
-233.03
-250.16
-245.68
-223.11
-188.56
-149.21
-113.76
-86.31
-69.75
-66.20
-76.38
-98.57
-129.47
-164.24
-196.07
-216.00
-216.89
-197.81
-165.13
-131.62
-103.54
-81.64
-62.77
-43.03
-20.02
6.46
34.65
62.70
90.43
120.13
154.21
193.71
237.08
280.65
319.77
350.34
369.93
377.91
375.10
362.26
339.90
308.17
267.33
217.94
160.90
97.43
29.40
-40.03
-107.95
-167.71
-211.62
-234.53
-236.47
-222.39
-199.73
-175.72
-157.24
-146.37
-142.58
-143.66
-145.64
-143.42
-132.32
-108.68
-74.10
-35.82
-3.47
15.49
19.20
11.64
-0.40
-9.56
-13.77
-13.78
-10.91
-4.82
6.34
24.53
50.45
82.29
114.76
142.35
161.87
173.17
178.51
180.01
177.76
169.90
153.55
127.10
91.47
49.90
5.72
-39.32
-85.66
-134.55
-185.52
-234.13
-272.81
-294.04
-293.90
-274.49
-242.65
-206.88
-177.45
-156.87
-144.81
-139.61
-138.43
-136.92
-130.25
-113.66
-85.73
-48.86
-10.10
23.66
49.72
67.11
77.85
85.56
93.73
104.79
120.17
141.25
169.15
204.36
245.53
288.33
325.52
348.72
351.99
334.65
302.33
263.96
227.37
195.51
165.29
130.42
86.11
32.64
-24.72
-78.44
-123.32
-158.88
-186.86
-209.28
-226.29
-235.55
-233.46
-218.27
-191.65
-159.16
-130.40
-110.74
-102.28
-103.18
-108.11
-109.57
-101.06
-77.62
-40.83
1.02
36.94
57.80
60.58
48.76
31.59
15.51
4.48
0.27
3.94
17.24
41.71
77.50
119.22
156.86
178.02
173.68
142.90
93.75
39.85
-6.11
-37.17
-53.44
-59.66
-61.47
-61.98
-61.44
-58.77
-53.52
-46.85
-41.14
-38.66
-40.12
-44.41
-48.66
-49.93
-46.45
-38.37
-27.37
-15.93
-6.53
-1.12
-1.01
-6.39
-15.90
-26.48
-33.63
-32.51
-20.11
2.94
32.09
60.40
81.66
92.85
94.86
90.97
85.29
80.82
79.08
81.04
87.62
99.02
113.89
127.91
134.49
127.80
105.62
70.52
29.10
-11.21
-45.35
-69.91
-84.63
-91.82
-94.40
-95.13
-96.59
-101.52
-112.97
-133.49
-162.84
-192.98
-213.47
-215.47
-196.04
-159.30
-113.10
-65.75
-27.11
1.25
18.58
23.81
16.89
-0.41
-24.06
-46.48
-57.16
-48.27
-18.79
22.87
63.45
92.05
104.45
103.13
94.67
85.51
78.96
75.57
73.70
71.70
68.98
65.76
62.23
58.70
55.32
51.58
47.49
43.41
40.60
40.42
42.89
45.51
44.18
34.43
13.33
-18.34
-56.10
-92.72
-121.06
-134.07
-130.77
-114.61
-90.73
-63.96
-37.56
-14.58
3.79
15.51
17.99
9.11
-10.61
-37.05
-62.87
-78.33
-76.47
-56.15
-23.21
12.18
39.60
53.09
52.85
44.05
33.62
26.42
23.87
24.39
25.55
25.87
25.83
26.95
30.85
38.42
49.19
61.77
74.86
87.79
99.99
110.26
115.65
111.86
95.11
63.93
20.67
-28.71
-76.56
-116.28
-141.77
-151.37
-147.56
-134.45
-115.63
-93.45
-69.58
-45.86
-24.98
-10.42
-4.25
-7.19
-17.64
-31.34
-42.25
-44.34
-33.10
-9.17
21.58
50.32
69.12
74.33
67.58
54.02
39.48
27.88
20.17
15.30
11.78
8.94
7.40
8.27
12.19
19.10
28.25
38.43
48.95
60.04
72.42
86.08
99.03
106.83
104.14
86.90
54.43
10.41
-38.21
-83.80
-119.38
-140.77
-148.11
-144.21
-132.16
-114.40
-92.75
-69.13
-46.33
-28.66
-19.11
-19.72
-30.07
-46.75
-63.77
-74.18
-72.58
-56.53
-29.87
-0.62
22.36
34.02
35.45
31.17
26.34
24.64
27.44
34.11
44.29
58.00
75.80
97.11
119.44
138.98
152.38
158.29
155.68
147.19
136.74
128.10
122.30
116.84
106.45
85.37
49.66
-1.44
-64.41
-133.15
-198.30
-249.51
-278.79
-283.86
-268.12
-238.33
-202.14
-166.11
-138.29
-121.24
-115.19
-117.95
-124.85
-129.27
-124.83
-108.10
-78.56
-42.49
-9.43
11.80
20.39
20.76
19.39
21.76
28.86
40.08
53.15
66.75
81.34
99.38
123.60
155.56
194.46
236.62
276.73
308.20
325.41
324.70
305.63
270.74
225.16
175.74
129.45
91.95
65.35
47.93
34.77
20.22
-0.29
-28.73
-64.12
-104.71
-145.00
-177.99
-198.55
-208.67
-213.39
-216.51
-219.10
-218.07
-208.94
-187.44
-151.56
-103.36
-48.75
2.04
38.83
56.04
55.22
46.58
37.91
33.51
34.98
43.10
57.32
77.96
104.51
134.47
162.79
182.72
188.62
178.59
156.00
127.93
102.29
83.54
70.54
57.18
35.70
1.54
-45.24
-97.10
-142.63
-172.20
-183.14
-179.89
-169.85
-158.63
-147.49
-134.87
-118.83
-99.83
-80.66
-65.12
-55.98
-54.04
-58.13
-65.58
-72.64
-74.47
-66.35
-45.08
-10.81
33.01
79.98
122.64
155.11
175.05
184.30
187.21
187.64
186.99
183.29
172.36
150.50
116.81
74.21
29.13
-10.58
-39.01
-53.19
-54.12
-45.13
-30.28
-12.29
5.63
20.08
28.18
27.03
15.59
-5.77
-35.21
-70.65
-110.60
-154.25
-200.72
-247.80
-293.41
-328.60
-344.57
-336.17
-305.68
-262.10
-216.45
-182.16
-159.66
-145.60
-134.50
-120.94
-100.30
-68.97
-27.79
18.67
63.87
102.59
131.39
150.71
163.37
173.39
184.13
197.52
214.78
236.68
263.47
292.32
318.14
333.60
332.10
309.99
269.13
217.61
167.22
129.13
108.47
103.66
107.52
112.11
111.55
103.37
87.73
65.29
35.64
-3.17
-51.80
-108.97
-165.36
-207.84
-226.46
-219.91
-194.76
-160.74
-129.47
-105.21
-89.68
-82.97
-84.88
-94.82
-110.86
-127.73
-136.23
-128.05
-100.14
-58.08
-12.68
25.14
49.03
58.43
57.51
51.94
45.78
41.06
37.71
35.69
35.51
37.64
41.55
45.82
49.26
50.50
49.87
49.35
52.15
60.45
73.04
84.17
85.83
71.63
39.65
-6.06
-57.37
-105.31
-143.69
-166.59
-173.45
-167.71
-153.62
-134.03
-110.11
-82.54
-52.82
-23.73
0.33
16.71
23.69
20.89
8.98
-10.39
-34.43
-58.87
-76.23
-79.43
-65.56
-37.69
-3.40
28.43
51.30
62.97
65.13
61.74
56.22
50.14
43.71
37.06
30.96
26.62
24.87
25.41
27.38
29.68
31.00
31.03
30.90
32.98
39.82
52.02
67.00
79.07
80.94
66.57
34.17
-12.43
-64.83
-112.31
-145.41
-160.28
-158.78
-146.13
-127.85
-107.65
-87.58
-70.27
-58.31
-55.35
-63.87
-82.34
-104.56
-121.61
-125.28
-111.70
-83.39
-48.31
-16.35
5.36
15.47
18.33
21.03
29.98
47.63
73.30
103.95
136.03
167.07
195.84
221.48
242.65
258.10
268.27
274.71
278.84
280.17
275.61
260.20
229.39
181.65
115.46
38.22
-36.98
-97.47
-137.16
-158.01
-166.41
-168.12
-165.78
-159.37
-147.66
-131.51
-114.15
-99.76
-91.51
-89.95
-92.90
-97.27
-100.58
-100.88
-97.03
-88.17
-73.70
-53.81
-30.31
-6.30
14.74
30.87
43.30
55.86
72.61
94.94
121.02
143.90
155.89
151.73
130.73
97.19
59.22
25.64
3.16
-5.15
0.02
15.13
34.70
52.33
60.96
55.06
32.17
-6.07
-53.66
-101.75
-141.18
-165.73
-170.38
-158.44
-136.84
-112.02
-87.74
-65.08
-44.01
-24.35
-6.61
7.76
17.63
22.20
20.82
12.80
-2.28
-23.45
-47.36
-67.27
-75.93
-69.22
-47.82
-17.42
13.19
36.17
47.87
49.74
46.61
43.26
41.85
41.83
41.54
39.55
36.45
34.43
35.89
42.16
52.81
66.13
79.86
91.60
98.03
95.41
80.71
52.81
13.74
-31.37
-75.46
-111.95
-134.36
-141.51
-136.87
-125.21
-109.91
-92.25
-72.31
-50.58
-28.83
-9.71
3.87
9.83
8.41
0.82
-10.83
-23.51
-33.16
-35.40
-27.21
-8.26
16.72
40.54
56.64
61.65
56.61
46.02
35.26
28.20
26.15
27.57
31.07
36.23
42.96
50.97
59.71
68.37
76.51
84.18
92.29
102.23
114.46
126.44
132.31
125.05
99.57
55.37
-2.90
-67.06
-128.59
-177.57
-206.50
-214.47
-206.12
-188.05
-164.91
-138.71
-109.92
-79.59
-49.88
-24.18
-6.89
0.21
-3.20
-15.78
-34.90
-56.88
-77.31
-91.05
-92.25
-79.20
-55.50
-28.66
-6.08
8.46
16.51
21.86
28.19
36.92
46.88
56.21
64.21
72.53
84.85
104.68
131.42
163.78
199.45
234.97
266.31
288.87
297.79
289.62
261.96
214.86
151.72
77.85
-0.93
-79.61
-154.57
-223.32
-278.45
-311.84
-318.53
-299.83
-263.50
-219.51
-176.47
-140.33
-116.87
-104.66
-101.38
-103.90
-107.72
-108.14
-100.65
-82.65
-53.14
-17.54
15.62
37.55
44.70
43.12
38.71
35.96
37.45
44.25
54.69
69.03
87.84
112.21
142.43
176.46
211.18
242.93
268.65
286.33
296.08
298.21
292.45
276.58
246.71
200.30
138.06
64.38
-14.03
-90.04
-158.82
-218.26
-265.11
-295.20
-305.31
-295.58
-270.15
-235.29
-197.05
-163.93
-138.11
-120.97
-113.94
-117.17
-128.61
-144.38
-157.92
-162.61
-151.87
-124.55
-87.21
-51.11
-25.72
-12.49
-7.14
-4.04
1.25
11.23
25.29
42.30
61.96
85.32
114.42
149.71
189.71
231.18
270.00
302.11
324.64
336.51
338.27
330.81
312.43
279.80
229.72
162.07
80.51
-8.07
-95.38
-173.84
-233.37
-267.56
-276.34
-265.46
-242.10
-212.79
-183.03
-157.69
-141.46
-133.71
-131.91
-131.44
-126.55
-111.61
-83.95
-45.31
-2.49
33.95
55.44
58.89
52.36
43.41
37.73
38.30
45.86
58.51
75.86
98.74
127.10
158.98
190.13
215.43
230.73
234.50
228.21
215.32
198.87
179.27
154.40
121.77
80.54
33.11
-16.11
-63.11
-106.16
-146.61
-187.34
-230.63
-271.02
-299.34
-306.76
-290.54
-255.65
-211.10
-165.56
-124.71
-94.37
-74.32
-64.67
-65.07
-73.63
-86.08
-96.51
-99.51
-89.09
-64.85
-32.45
-2.17
17.37
23.38
19.41
13.65
10.38
10.58
12.63
15.45
19.26
26.73
40.02
61.39
91.54
129.40
172.25
215.52
253.85
281.66
294.69
291.03
272.55
243.83
210.81
178.25
147.43
116.45
81.73
40.34
-8.48
-61.95
-116.00
-162.39
-192.63
-202.75
-194.92
-174.97
-149.35
-126.07
-107.15
-93.68
-86.34
-85.09
-88.41
-92.87
-92.23
-79.39
-51.95
-14.04
24.68
54.82
71.55
75.26
69.74
59.53
48.01
36.81
27.31
20.70
18.31
20.45
25.63
31.06
34.07
33.10
28.12
20.96
14.74
12.69
17.36
29.12
45.26
60.30
67.24
59.82
35.36
-3.55
-49.41
-91.46
-119.63
-129.36
-122.54
-105.34
-84.75
-65.59
-49.27
-34.84
-20.78
-6.95
5.06
13.46
16.89
14.52
6.02
-8.86
-30.76
-60.21
-96.66
-137.19
-175.68
-203.53
-212.73
-198.96
-163.33
-111.93
-52.98
6.22
61.27
108.17
146.49
177.67
202.60
220.49
229.46
228.24
217.15
197.89
172.76
143.99
112.79
79.44
44.63
10.36
-19.99
-42.77
-55.77
-59.17
-55.33
-47.99
-40.84
-36.14
-34.24
-33.75
-32.49
-28.41
-20.34
-8.98
2.98
10.91
10.10
-1.40
-21.11
-41.87
-54.41
-50.87
-29.52
4.52
41.60
71.82
88.35
88.10
70.90
38.25
-5.76
-53.58
-93.90
-114.51
-109.00
-79.00
-36.58
0.34
16.34
7.00
-19.34
-46.08
-57.27
-45.39
-13.60
27.17
64.29
88.44
95.96
87.62
66.16
34.93
-2.04
-39.57
-71.59
-90.91
-94.70
-84.42
-64.57
-40.55
-16.79
3.51
18.28
27.19
30.26
27.86
20.98
10.32
-4.47
-24.33
-48.85
-75.28
-97.81
-109.30
-104.46
-82.53
-48.44
-11.27
19.59
38.37
44.55
42.16
36.80
32.68
31.41
32.42
34.24
36.10
38.29
41.39
45.68
50.71
55.75
60.44
65.28
70.60
75.76
78.41
74.73
61.08
36.25
3.15
-31.54
-58.66
-71.93
-70.22
-57.34
-39.54
-22.38
-8.62
1.83
10.13
17.26
22.17
23.06
18.67
8.86
-5.65
-23.97
-45.50
-69.42
-92.43
-110.14
-117.26
-109.69
-87.07
-53.75
-17.53
13.29
33.18
41.26
40.41
35.18
29.49
25.23
22.53
20.76
19.39
18.52
18.46
19.27
20.66
22.15
23.21
24.23
26.48
31.70
40.93
53.09
64.25
68.93
62.36
42.67
13.90
-16.07
-38.94
-49.32
-46.55
-34.28
-17.79
-2.04
10.50
18.71
21.67
17.95
5.62
-16.37
-46.56
-79.50
-107.11
-121.00
-116.16
-93.57
-60.13
-26.17
-1.05
10.71
10.78
5.06
0.34
1.00
7.53
17.77
28.60
38.06
45.78
52.61
59.27
65.66
71.10
74.89
77.61
80.60
85.13
90.73
94.32
90.73
75.31
46.71
7.99
-31.89
-63.13
-79.04
-78.49
-65.38
-46.27
-27.00
-10.88
1.34
10.50
17.25
21.54
22.83
20.36
13.45
1.77
-14.53
-35.44
-60.51
-89.34
-120.27
-149.53
-171.32
-179.57
-170.52
-144.88
-108.45
-69.91
-37.56
-15.90
-4.71
-0.06
2.25
4.91
8.71
13.04
17.65
23.26
31.50
44.11
62.12
85.33
111.02
135.43
153.11
158.05
145.81
116.00
73.31
26.40
-15.31
-45.37
-61.99
-68.19
-69.02
-68.59
-68.50
-68.44
-67.99
-67.70
-68.46
-69.65
-68.22
-59.37
-39.16
-7.14
32.77
73.15
105.96
125.72
131.28
125.19
112.05
96.52
82.04
70.73
63.60
60.86
61.96
65.32
68.82
70.45
69.25
65.23
59.37
52.88
46.90
42.41
39.76
38.25
35.64
28.44
12.85
-13.27
-48.74
-88.59
-124.57
-148.35
-155.47
-146.70
-126.76
-101.51
-75.58
-51.38
-30.34
-12.96
-1.39
1.31
-7.04
-25.74
-50.12
-72.36
-83.02
-76.29
-52.55
-18.74
14.67
38.31
47.69
44.64
35.46
27.27
24.24
26.70
32.09
37.59
41.65
44.38
47.26
51.78
58.71
67.72
77.99
88.59
98.27
104.67
103.73
91.03
63.66
22.06
-29.23
-82.25
-128.17
-160.35
-173.57
-169.59
-154.45
-134.57
-114.03
-93.95
-73.65
-52.24
-30.04
-8.75
9.02
20.98
25.76
23.12
13.53
-1.15
-17.26
-29.73
-33.60
-25.60
-6.86
17.13
38.54
50.99
52.62
46.79
40.57
39.73
46.99
61.22
78.19
91.75
96.42
89.77
73.40
52.56
34.43
25.78
30.04
45.95
67.06
84.34
89.45
77.61
48.59
6.12
-43.80
-93.96
-135.14
-160.88
-169.20
-162.07
-143.07
-115.76
-83.09
-48.02
-15.43
10.84
26.48
28.40
15.91
-8.95
-42.11
-78.08
-109.14
-127.07
-126.29
-106.99
-75.61
-42.20
-15.78
-0.72
4.32
4.84
6.99
13.58
23.82
34.93
44.36
52.01
59.77
70.09
84.55
102.96
124.15
147.10
170.78
191.37
204.74
205.98
190.32
155.24
102.14
34.55
-36.43
-97.11
-137.50
-155.24
-155.12
-144.85
-130.81
-116.45
-102.77
-89.27
-76.08
-63.83
-53.29
-45.07
-39.80
-37.69
-39.75
-47.86
-63.59
-87.64
-117.69
-148.70
-173.88
-187.26
-185.80
-170.45
-145.32
-115.31
-84.20
-52.00
-18.20
17.72
55.06
91.77
125.53
154.80
179.55
200.87
222.39
247.18
276.71
309.72
342.24
368.36
381.19
374.68
335.45
261.51
163.83
62.99
-21.60
-80.52
-115.35
-133.87
-144.18
-150.94
-152.77
-147.33
-134.16
-116.14
-97.87
-83.24
-74.49
-71.85
-74.36
-79.17
-85.46
-94.97
-110.70
-134.01
-162.21
-187.17
-200.02
-198.23
-180.08
-148.28
-109.02
-69.19
-33.19
-1.27
28.45
58.67
90.00
123.57
159.23
196.28
234.00
271.22
305.78
331.54
339.62
321.51
273.82
199.10
105.75
5.79
-90.63
-168.59
-217.16
-234.72
-227.72
-204.81
-173.24
-137.98
-102.79
-72.93
-50.61
-38.54
-38.01
-46.80
-58.62
-65.79
-61.91
-42.85
-10.61
27.04
58.92
76.29
77.07
65.48
48.01
30.05
14.93
3.73
-2.66
-2.94
3.63
17.51
37.71
60.96
83.17
101.40
114.47
120.52
120.81
117.97
114.92
112.31
108.60
97.00
70.97
27.26
-31.94
-98.98
-164.07
-218.22
-250.50
-256.30
-238.78
-205.77
-165.72
-124.37
-83.88
-47.30
-14.66
11.76
27.58
28.61
12.91
-18.98
-63.12
-111.56
-154.14
-180.04
-182.27
-160.98
-123.42
-80.71
-43.28
-17.51
-1.14
10.87
23.97
41.09
61.29
81.01
96.80
107.24
113.91
120.31
126.98
133.96
140.80
146.57
150.88
154.23
157.29
159.82
159.50
151.89
128.99
87.59
31.96
-27.47
-79.42
-117.03
-138.93
-147.55
-146.20
-137.17
-121.73
-102.05
-82.35
-68.20
-64.68
-73.31
-91.20
-111.31
-124.06
-120.15
-94.78
-50.15
4.54
56.36
94.35
113.46
116.83
114.45
117.99
134.72
164.25
199.74
227.61
237.77
225.35
192.64
148.07
103.00
67.87
49.24
48.74
63.08
85.24
104.57
110.36
95.08
56.41
-2.87
-76.23
-155.56
-229.75
-284.28
-309.16
-302.95
-271.71
-224.42
-169.73
-115.03
-66.67
-31.17
-9.78
-2.63
-7.40
-18.94
-30.00
-33.38
-24.07
0.46
37.07
77.01
108.64
124.05
122.60
110.47
96.37
86.48
81.59
77.50
68.42
50.23
23.64
-7.01
-35.72
-57.55
-69.92
-73.65
-68.86
-55.08
-32.29
-2.09
30.20
56.38
67.72
58.49
28.42
-16.82
-67.88
-115.37
-149.10
-164.00
-160.71
-143.57
-117.79
-87.50
-55.54
-24.41
2.22
22.18
32.79
32.14
20.09
-1.35
-27.91
-53.79
-71.58
-75.32
-63.37
-40.06
-13.47
8.27
20.29
22.49
18.21
12.02
7.28
4.84
4.57
6.87
12.95
24.19
41.25
62.72
85.82
107.01
123.50
134.38
141.03
146.53
154.36
167.18
181.72
192.14
190.20
168.27
122.57
55.14
-26.46
-111.61
-188.49
-245.72
-276.43
-280.94
-265.18
-236.48
-200.68
-161.90
-126.27
-97.24
-79.35
-76.31
-88.30
-110.62
-134.27
-149.37
-148.02
-128.26
-94.36
-55.44
-20.97
3.51
17.72
26.05
35.14
51.22
77.87
115.72
161.92
211.12
256.68
290.91
307.26
302.93
280.37
247.08
213.93
191.40
186.08
198.66
221.86
243.07
249.01
230.46
184.99
117.03
35.56
-52.06
-133.84
-198.44
-238.90
-254.39
-248.54
-226.44
-193.39
-154.85
-117.91
-86.93
-66.50
-60.13
-68.97
-90.87
-121.01
-153.05
-178.64
-189.47
-180.62
-154.72
-120.70
-89.21
-67.40
-56.67
-52.95
-50.02
-43.44
-31.38
-14.91
4.01
24.41
46.87
72.51
100.52
129.86
159.38
188.40
216.87
245.17
273.27
299.19
317.52
320.60
301.83
258.53
193.77
115.67
34.73
-41.14
-103.36
-146.43
-169.45
-174.85
-166.18
-146.49
-118.13
-85.52
-52.45
-23.90
-5.57
-1.92
-14.27
-40.96
-78.42
-120.97
-160.42
-187.71
-195.99
-184.17
-157.54
-124.99
-94.94
-72.21
-57.48
-46.25
-34.34
-19.43
-0.54
20.60
41.86
60.87
74.28
79.82
79.07
76.88
78.26
83.98
89.24
86.61
70.97
43.58
12.19
-13.06
-26.05
-27.83
-25.10
-25.37
-31.89
-42.37
-51.28
-54.01
-49.08
-39.25
-29.37
-23.90
-24.94
-31.69
-41.85
-52.31
-59.48
-58.75
-46.29
-21.26
12.21
45.72
70.12
80.08
78.25
72.06
71.09
81.28
101.73
125.46
143.76
150.72
145.33
130.20
108.20
81.53
51.51
20.35
-7.43
-25.74
-29.74
-19.19
0.03
16.77
20.01
3.30
-32.84
-81.31
-131.18
-172.05
-197.15
-200.90
-186.66
-160.68
-128.72
-94.92
-62.13
-32.52
-8.53
7.48
14.41
13.43
8.84
6.96
13.75
31.64
58.62
87.64
109.83
118.54
112.17
95.30
75.29
58.74
46.08
35.16
23.89
12.27
2.16
-4.74
-8.44
-11.62
-18.48
-31.53
-48.29
-61.53
-62.67
-46.03
-11.62
35.17
85.13
127.66
153.75
156.19
132.67
85.77
22.12
-49.32
-117.69
-169.84
-196.82
-198.49
-181.29
-152.74
-118.41
-81.47
-44.11
-8.78
20.63
41.50
51.19
48.53
34.52
11.76
-15.83
-43.12
-62.20
-65.22
-49.46
-19.63
14.74
43.89
61.72
67.52
65.14
60.18
56.44
54.55
52.71
49.28
44.16
38.69
34.43
32.31
32.18
32.82
32.69
31.52
30.53
31.75
36.08
41.73
44.14
37.66
18.43
-13.11
-51.45
-86.46
-108.28
-111.93
-98.87
-75.26
-48.59
-24.44
-5.10
9.89
22.07
32.09
39.61
43.33
41.98
34.97
22.40
4.77
-17.67
-44.11
-72.99
-100.90
-122.44
-131.50
-123.86
-99.71
-64.24
-25.94
6.85
28.92
39.69
42.07
40.04
36.45
32.16
26.86
20.32
13.33
7.26
3.28
1.33
0.26
-1.30
-4.31
-8.58
-12.76
-15.02
-13.77
-7.65
3.96
20.91
41.71
63.17
80.40
87.95
81.96
61.14
30.12
-3.73
-33.01
-52.60
-60.34
-55.44
-37.83
-8.53
29.39
70.35
106.46
130.09
136.97
128.06
109.09
87.71
70.02
58.60
52.44
48.02
41.70
31.12
15.66
-3.51
-23.35
-39.75
-48.19
-45.15
-29.55
-3.82
26.46
54.00
72.04
76.77
67.14
43.92
9.46
-32.86
-79.23
-125.40
-167.29
-201.89
-227.58
-245.65
-253.83
-251.56
-239.06
-217.30
-187.49
-151.89
-118.87
-91.97
-73.29
-62.82
-58.05
-53.85
-43.66
-22.50
10.88
52.61
93.40
122.14
132.05
123.79
107.71
91.45
79.63
74.44
76.90
87.15
105.99
133.60
167.65
202.17
228.09
237.95
229.60
207.66
181.59
161.28
152.14
152.73
154.89
147.10
120.71
73.39
9.18
-64.42
-139.23
-208.90
-269.02
-313.02
-335.21
-332.55
-306.80
-264.58
-215.81
-169.77
-136.04
-113.96
-98.53
-83.03
-60.50
-25.69
22.97
81.57
140.50
186.88
211.22
210.92
191.01
160.84
129.58
106.32
91.52
84.63
86.03
96.82
116.09
139.99
160.87
172.16
171.05
157.96
137.82
116.96
100.17
88.04
77.14
62.27
39.20
6.17
-38.35
-92.93
-153.24
-212.30
-261.99
-295.51
-309.88
-307.54
-287.79
-256.64
-221.92
-189.44
-160.25
-131.53
-99.96
-64.83
-31.47
-2.55
17.87
27.19
24.36
9.52
-16.54
-52.01
-90.40
-121.81
-135.43
-126.57
-98.21
-59.94
-23.27
3.37
17.40
21.97
22.51
23.53
25.34
26.53
25.39
21.90
17.83
15.56
17.10
22.75
31.16
39.09
44.23
46.23
47.27
51.60
62.75
83.91
116.15
158.46
204.43
247.64
282.60
305.13
311.59
298.73
265.06
212.59
148.08
81.75
24.58
-16.26
-39.89
-50.99
-56.48
-61.37
-66.78
-70.64
-70.48
-65.49
-57.81
-51.31
-49.13
-51.97
-57.61
-62.30
-63.05
-59.17
-52.19
-44.92
-39.80
-37.23
-35.78
-33.12
-27.58
-19.27
-10.09
-2.71
0.67
-1.02
-6.91
-15.10
-23.42
-30.28
-35.15
-38.35
-40.55
-41.28
-40.40
-36.92
-29.76
-18.41
-3.50
13.16
29.05
41.39
48.64
50.17
46.48
39.04
29.39
18.51
6.76
-5.93
-20.42
-37.59
-57.44
-78.25
-96.50
-107.66
-107.82
-94.91
-70.09
-38.12
-6.14
18.51
30.79
29.81
19.00
4.41
-7.33
-11.26
-5.30
9.70
30.28
51.08
66.14
70.15
59.96
36.07
2.79
-32.29
-60.83
-75.61
-74.74
-60.79
-38.78
-14.11
9.04
28.23
42.40
51.43
55.75
56.16
53.97
50.33
45.58
39.22
30.01
16.37
-2.88
-27.44
-55.24
-81.72
-100.65
-106.22
-95.57
-70.57
-37.54
-4.92
20.25
34.67
39.58
39.01
37.04
35.65
34.44
32.03
27.54
21.68
16.15
12.57
11.71
13.25
16.46
19.98
21.86
19.67
11.51
-2.52
-19.49
-34.29
-42.38
-42.12
-36.20
-30.11
-28.82
-33.78
-42.49
-50.56
-54.79
-54.88
-52.63
-49.46
-44.58
-35.12
-18.55
4.89
31.48
55.77
73.04
81.44
82.32
78.86
74.49
71.37
70.48
72.06
76.21
83.01
92.19
102.00
109.01
108.50
95.65
68.09
27.69
-18.74
-61.18
-90.13
-100.49
-93.61
-76.15
-56.65
-41.35
-32.23
-28.04
-26.75
-27.80
-32.26
-41.24
-52.83
-63.63
-69.10
-66.05
-54.95
-39.81
-26.02
-17.22
-13.60
-12.77
-11.65
-7.88
-1.06
7.54
15.42
19.92
18.90
11.25
-2.31
-18.84
-33.38
-40.50
-36.59
-20.85
1.87
23.83
38.08
41.40
35.07
23.51
11.47
1.63
-5.86
-12.49
-19.44
-26.46
-32.30
-35.84
-37.00
-36.93
-37.28
-39.28
-42.88
-46.75
-48.35
-45.54
-37.32
-24.19
-7.91
9.22
25.26
39.19
50.96
61.18
70.28
78.12
84.06
87.16
86.94
83.94
79.94
76.96
76.90
80.44
87.25
96.56
107.54
119.92
133.70
148.57
162.83
174.47
181.30
182.37
178.36
169.66
156.41
136.66
110.82
81.68
55.50
38.51
35.21
45.85
63.53
77.49
77.58
58.74
22.22
-24.63
-74.86
-123.41
-167.96
-210.75
-254.95
-301.98
-350.44
-397.24
-437.58
-470.39
-496.04
-501.36
-476.90
-419.87
-336.68
-241.19
-159.45
-97.94
-57.37
-34.45
-22.37
-11.64
5.49
34.33
76.21
127.87
183.99
235.63
275.10
298.59
304.84
295.36
273.63
244.25
211.98
182.37
158.09
140.01
127.61
118.64
111.18
105.17
102.51
105.31
114.06
124.55
130.07
125.04
107.55
80.57
50.02
20.99
-5.07
-29.86
-56.42
-85.39
-113.74
-136.53
-150.28
-155.58
-157.45
-163.00
-178.04
-204.51
-238.93
-273.20
