1540450956.00
64.000000
-0.00
-0.00
-0.00
-0.00
-0.00
-0.00
-0.00
-0.00
-0.00
-0.00
0.00
0.01
0.01
-0.00
-0.03
-0.05
-0.05
0.00
0.13
0.36
0.66
1.01
1.37
1.72
2.06
2.40
2.79
3.24
3.80
4.42
5.06
5.66
6.20
6.68
7.15
7.68
8.31
9.14
10.09
11.04
11.88
12.56
13.14
13.76
14.65
15.96
17.91
20.32
22.90
25.38
27.58
29.57
31.68
34.32
37.81
42.54
48.15
54.10
59.83
64.97
69.58
74.14
79.34
85.71
93.76
103.00
112.62
121.73
129.77
136.75
143.30
150.75
157.77
166.64
177.95
191.79
206.97
220.57
228.25
225.36
208.53
176.87
132.76
80.05
23.07
-34.94
-92.44
-149.16
-205.23
-260.37
-313.74
-363.87
-409.83
-450.91
-486.50
-515.74
-537.23
-549.22
-549.96
-538.37
-514.21
-478.67
-433.88
-382.45
-327.02
-269.84
-212.63
-156.66
-102.95
-52.37
-5.90
35.58
71.43
101.35
125.50
144.38
158.69
169.15
176.37
180.75
182.57
182.07
179.51
175.23
169.65
163.18
156.15
148.81
141.30
133.69
126.02
118.33
110.69
103.16
95.80
88.68
81.83
75.25
68.95
62.95
57.25
51.86
46.78
42.03
37.59
33.45
29.61
26.07
22.81
19.83
17.11
14.67
12.48
10.54
8.83
7.35
6.07
4.97
4.05
3.27
2.62
2.09
1.65
1.30
1.01
0.79
0.61
0.47
0.37
0.29
0.23
0.19
0.16
0.15
0.15
0.15
0.17
0.19
0.22
0.25
0.29
0.33
0.37
0.42
0.46
0.51
0.56
0.61
0.66
0.72
0.78
0.85
0.92
1.00
1.09
1.18
1.30
1.42
1.56
1.71
1.88
2.07
2.29
2.52
2.78
3.07
3.39
3.74
4.12
4.53
4.98
5.47
6.00
6.56
7.17
7.82
8.51
9.25
10.03
10.85
11.73
12.64
13.61
14.63
15.72
16.87
18.08
19.33
20.61
21.86
23.00
23.97
24.62
24.86
24.55
23.61
21.96
19.60
16.56
12.89
8.76
4.34
-0.18
-4.55
-8.60
-12.13
-15.02
-17.17
-18.58
-19.23
-19.21
-18.61
-17.53
-16.11
-14.46
-12.71
-10.96
-9.27
-7.62
-6.02
-4.43
-2.80
-1.09
0.70
2.56
4.45
6.38
8.40
10.45
12.56
14.77
17.10
19.52
21.95
24.35
26.71
29.24
31.85
34.67
37.82
41.36
45.19
49.07
52.79
56.25
59.67
63.00
66.50
70.47
74.98
79.77
84.30
87.97
90.46
92.00
92.60
92.75
92.89
92.99
92.28
89.25
81.92
68.01
50.32
30.25
9.32
-11.18
-30.59
-49.04
-67.23
-86.20
-107.04
-130.61
-157.92
-188.58
-220.32
-248.81
-268.57
-274.64
-264.60
-239.76
-204.83
-166.78
-131.75
-103.40
-82.41
-67.48
-56.73
-48.79
-43.07
-39.19
-36.70
-34.55
-31.41
-26.37
-19.39
-11.26
-3.25
3.55
8.65
12.07
14.35
16.10
17.64
18.88
19.40
18.77
16.81
13.71
9.91
5.94
2.08
-1.77
-6.05
-11.24
-17.37
-23.64
-28.36
-29.46
-25.15
-14.79
0.79
19.39
38.10
54.27
66.15
73.13
75.58
74.30
70.13
63.78
55.84
47.01
38.13
30.10
23.66
19.10
16.27
14.62
13.58
12.78
12.19
12.00
12.43
13.42
14.51
14.94
13.99
11.23
6.85
1.50
-3.92
-8.60
-12.20
-14.92
-17.39
-20.42
-24.69
-30.50
-37.53
-44.87
-51.02
-54.18
-52.73
-45.65
-33.03
-16.09
2.98
21.64
37.58
49.28
56.17
58.57
57.27
53.27
47.55
40.92
34.10
27.70
22.26
18.14
15.41
13.90
13.19
12.83
12.51
12.22
12.14
12.49
13.26
14.11
14.40
13.45
10.80
6.47
0.87
-5.28
-11.24
-16.45
-20.74
-24.31
-27.64
-31.36
-35.99
-41.72
-48.20
-54.40
-58.74
-59.49
-55.29
-45.67
-31.29
-13.86
4.40
21.26
35.06
44.95
50.75
52.78
51.52
47.55
41.54
34.31
26.82
20.04
14.69
11.15
9.28
8.64
8.65
8.87
9.08
9.34
9.79
10.51
11.33
11.85
11.52
9.91
6.84
2.54
-2.46
-7.51
-12.11
-16.03
-19.41
-22.65
-26.21
-30.52
-35.79
-41.81
-47.88
-52.72
-54.73
-52.42
-44.93
-32.48
-16.39
1.15
17.80
31.64
41.61
47.56
49.94
49.45
46.72
42.23
36.42
29.81
23.08
16.96
12.07
8.66
6.64
5.58
5.02
4.64
4.37
4.31
4.60
5.18
5.74
5.79
4.89
2.74
-0.60
-4.79
-9.37
-13.85
-17.94
-21.54
-24.78
-27.93
-31.36
-35.44
-40.45
-46.32
-52.41
-57.44
-59.67
-57.42
-49.71
-36.73
-19.91
-1.59
15.79
30.24
40.74
47.09
49.69
49.16
46.12
41.18
35.03
28.45
22.24
17.05
13.20
10.64
9.04
7.98
7.15
6.45
5.96
5.87
6.21
6.80
7.18
6.77
5.06
1.88
-2.57
-7.66
-12.68
-17.02
-20.46
-23.19
-25.71
-28.66
-32.53
-37.55
-43.52
-49.71
-54.87
-57.36
-55.57
-48.41
-35.87
-19.17
-0.52
17.50
32.64
43.50
49.74
51.80
50.50
46.75
41.37
35.07
28.54
22.41
17.16
13.05
10.05
7.95
6.44
5.35
4.64
4.42
4.78
5.66
6.68
7.25
6.72
4.65
0.99
-3.80
-9.01
-13.86
-17.90
-21.10
-23.84
-26.78
-30.57
-35.64
-41.94
-48.80
-54.90
-58.54
-58.01
-52.22
-41.08
-25.72
-8.17
9.20
24.34
35.87
43.23
46.54
46.32
43.27
38.21
32.01
25.51
19.43
14.24
10.18
7.18
5.07
3.64
2.78
2.42
2.60
3.30
4.34
5.36
5.85
5.25
3.13
-0.60
-5.68
-11.50
-17.37
-22.68
-27.18
-31.08
-34.99
-39.63
-45.46
-52.27
-59.02
-63.92
-64.95
-60.55
-50.23
-34.86
-16.37
2.78
20.28
34.47
44.49
50.23
52.12
50.91
47.53
42.91
37.95
33.33
29.47
26.50
24.36
22.80
21.56
20.37
19.07
17.67
16.34
15.29
14.60
14.08
13.22
11.44
8.26
3.65
-2.02
-8.06
-13.80
-18.86
-23.34
-27.73
-32.71
-38.86
-46.31
-54.56
-62.33
-67.78
-68.90
-64.19
-53.19
-36.84
-17.23
2.97
21.23
35.84
46.07
52.07
54.47
54.05
51.53
47.62
42.97
38.23
34.00
30.66
28.33
26.81
25.73
24.65
23.33
21.76
20.17
18.88
18.03
17.48
16.76
15.27
12.54
8.38
2.98
-3.18
-9.43
-15.20
-20.11
-24.17
-27.73
-31.42
-35.96
-41.89
-49.26
-57.48
-65.19
-70.56
-71.62
-66.89
-55.97
-39.69
-20.07
0.26
18.78
33.71
44.29
50.65
53.49
53.58
51.65
48.23
43.87
39.13
34.63
30.88
28.16
26.50
25.62
25.11
24.59
23.87
22.99
22.15
21.55
21.18
20.80
19.89
17.95
14.65
9.99
4.34
-1.72
-7.60
-12.87
-17.36
-21.17
-24.60
-28.10
-32.17
-37.26
-43.60
-50.92
-58.34
-64.33
-67.03
-64.78
-56.69
-43.06
-25.43
-6.13
12.35
28.01
39.68
47.07
50.49
50.54
47.88
43.23
37.36
31.16
25.50
21.02
17.98
16.25
15.40
14.96
14.63
14.38
14.32
14.58
15.10
15.56
15.48
14.32
11.72
7.57
2.10
-4.15
-10.54
-16.46
-21.51
-25.66
-29.28
-33.05
-37.71
-43.71
-50.86
-58.09
-63.63
-65.36
-61.59
-51.65
-36.26
-17.36
2.46
20.71
35.60
46.30
52.79
55.55
55.20
52.33
47.52
41.46
34.98
28.95
24.12
20.82
18.93
17.92
17.15
16.14
14.81
13.48
12.58
12.39
12.74
13.02
12.39
10.15
6.00
0.23
-6.44
-13.10
-19.00
-23.81
-27.65
-31.10
-34.95
-39.94
-46.52
-54.56
-63.12
-70.51
-74.57
-73.27
-65.39
-51.07
-31.86
-10.37
10.52
28.43
41.93
50.72
55.28
56.47
55.13
51.98
47.64
42.69
37.78
33.47
30.15
27.87
26.34
25.04
23.51
21.54
19.30
17.24
15.83
15.26
15.24
15.05
13.81
10.81
5.86
-0.63
-7.79
-14.65
-20.47
-25.06
-28.73
-32.23
-36.41
-41.94
-49.00
-57.16
-65.24
-71.47
-73.87
-70.74
-61.28
-46.02
-26.81
-6.38
12.46
27.64
38.24
44.46
47.20
47.46
46.03
43.42
40.00
36.25
32.74
30.02
28.36
27.68
27.51
27.28
26.57
25.27
23.63
22.17
21.44
21.88
23.55
26.12
28.86
30.82
31.16
29.35
25.38
19.79
13.38
6.96
1.03
-4.35
-9.51
-14.97
-21.16
-28.22
-35.87
-43.36
-49.47
-52.74
-51.79
-45.76
-34.81
-20.19
-4.02
11.30
23.84
32.63
37.74
39.90
40.03
38.78
36.46
33.22
29.29
25.12
21.29
18.29
16.25
14.92
13.81
12.47
10.72
8.71
6.79
5.28
4.33
3.74
3.14
2.03
0.03
-3.05
-7.18
-12.04
-17.11
-21.80
-25.63
-28.45
-30.50
-32.36
-34.73
-38.21
-43.06
-49.08
-55.61
-61.54
-65.42
-65.75
-61.33
-51.69
-37.46
-20.27
-2.40
13.90
27.01
36.19
41.54
43.64
43.21
40.86
37.11
32.46
27.52
22.94
19.28
16.90
15.79
15.65
15.94
16.13
15.90
15.17
14.11
12.98
11.95
10.95
9.72
7.86
5.08
1.29
-3.39
-8.60
-13.99
-19.20
-24.06
-28.52
-32.67
-36.75
-41.10
-46.12
-51.98
-58.48
-64.70
-69.09
-69.76
-65.10
-54.48
-38.63
-19.54
0.10
17.78
31.78
41.48
47.10
49.37
49.01
46.66
42.87
38.22
33.39
29.04
25.64
23.36
22.03
21.27
20.61
19.73
18.50
17.03
15.59
14.48
13.84
13.58
13.32
12.51
10.62
7.37
2.79
-2.75
-8.73
-14.56
-19.83
-24.39
-28.31
-31.89
-35.58
-39.83
-45.04
-51.28
-58.15
-64.59
-68.93
-69.28
-64.06
-52.71
-36.02
-16.06
4.36
22.56
36.68
46.05
51.04
52.56
51.59
48.87
44.90
40.12
35.05
30.30
26.42
23.71
22.13
21.37
21.00
20.68
20.26
19.78
19.36
19.06
18.79
18.26
17.10
15.01
11.90
7.86
3.20
-1.79
-6.83
-11.71
-16.31
-20.51
-24.25
-27.53
-30.53
-33.57
-37.10
-41.51
-46.91
-52.87
-58.31
-61.64
-61.11
-55.44
-44.30
-28.64
-10.40
7.98
24.32
37.16
45.94
50.81
52.26
50.88
47.21
41.79
35.28
28.42
22.04
16.78
13.01
10.77
9.79
9.62
9.76
9.85
9.71
9.40
9.10
8.91
8.74
8.21
6.80
4.06
-0.09
-5.33
-11.03
-16.50
-21.24
-25.11
-28.30
-31.19
-34.20
-37.75
-42.10
-47.32
-53.09
-58.54
-62.20
-62.36
-57.55
-47.20
-31.98
-13.72
5.10
22.12
35.68
45.09
50.40
52.10
50.75
46.88
41.10
34.23
27.24
21.09
16.44
13.43
11.71
10.66
9.72
8.61
7.43
6.52
6.19
6.50
7.07
7.20
6.11
3.28
-1.31
-7.13
-13.32
-18.99
-23.60
-27.13
-30.09
-33.26
-37.47
-43.25
-50.59
-58.69
-66.01
-70.47
-70.05
-63.43
-50.51
-32.62
-12.11
8.26
26.14
40.00
49.27
54.13
55.21
53.28
49.16
43.75
37.92
32.48
28.00
24.70
22.41
20.70
19.05
17.09
14.79
12.41
10.41
9.17
8.77
8.87
8.77
7.68
5.03
0.73
-4.77
-10.71
-16.29
-21.07
-25.08
-28.81
-32.98
-38.26
-44.93
-52.71
-60.66
-67.23
-70.52
-68.72
-60.68
-46.43
-27.36
-5.95
14.90
32.68
45.87
54.14
58.06
58.57
56.60
52.83
47.82
42.18
36.56
31.62
27.79
25.15
23.41
22.10
20.73
19.02
17.00
14.94
13.24
12.19
11.78
11.66
11.17
9.62
6.59
2.12
-3.29
-8.84
-13.79
-17.78
-20.97
-23.92
-27.41
-32.09
-38.29
-45.72
-53.44
-59.83
-62.95
-60.99
-52.95
-39.01
-20.68
-0.40
19.16
35.72
47.89
55.23
58.07
57.10
53.22
47.32
40.30
33.01
26.11
20.00
14.79
10.32
6.31
2.57
-0.89
-3.90
-6.10
-7.26
-7.35
-6.69
-5.87
-5.51
-6.13
-7.84
-10.45
-13.51
-16.61
-19.52
-22.37
-25.64
-29.98
-35.97
-43.68
-52.46
-60.78
-66.50
-67.41
-62.04
-50.24
-33.34
-13.78
5.59
22.34
34.96
43.01
46.79
47.01
44.34
39.41
32.72
24.89
16.66
8.89
2.39
-2.23
-4.77
-5.43
-4.82
-3.71
-2.83
-2.67
-3.39
-4.87
-6.85
-9.13
-11.66
-14.57
-18.19
-22.88
-28.99
-36.73
-45.99
-56.08
-65.61
-72.53
-74.57
-69.94
-58.05
-39.87
-17.81
4.99
25.57
41.92
53.24
59.73
62.15
61.27
57.71
51.97
44.66
36.64
28.95
22.60
18.14
15.54
14.14
12.97
11.15
8.29
4.59
0.66
-2.82
-5.55
-7.80
-10.33
-14.11
-19.98
-28.32
-38.92
-50.92
-62.80
-72.50
-77.75
-76.60
-68.01
-52.35
-31.47
-8.27
14.14
33.29
47.78
57.31
62.33
63.48
61.41
56.71
50.10
42.52
35.03
28.58
23.63
20.09
17.36
14.69
11.57
7.97
4.31
1.25
-0.74
-1.68
-2.20
-3.37
-6.36
-12.02
-20.54
-31.31
-42.85
-53.09
-59.69
-60.61
-54.67
-41.98
-24.00
-3.25
17.44
35.59
49.63
58.96
63.77
64.61
62.15
57.05
50.08
42.17
34.32
27.39
21.84
17.61
14.21
10.99
7.46
3.54
-0.47
-4.07
-6.87
-8.91
-10.69
-13.09
-17.11
-23.49
-32.38
-43.13
-54.17
-63.22
-67.76
-65.79
-56.42
-40.38
-19.83
2.20
22.75
39.66
51.97
59.73
63.52
63.97
61.46
56.34
49.11
40.67
32.22
24.92
19.39
15.54
12.62
9.61
5.83
1.18
-3.81
-8.31
-11.67
-13.78
-15.13
-16.68
-19.51
-24.55
-32.26
-42.47
-54.04
-64.97
-72.53
-74.03
-67.65
-53.19
-32.33
-8.16
15.76
36.41
52.11
62.53
68.31
70.41
69.58
66.25
60.74
53.46
45.14
36.74
29.22
23.29
19.15
16.48
14.62
12.82
10.49
7.40
3.66
-0.39
-4.36
-8.01
-11.36
-14.73
-18.60
-23.52
-30.00
-38.26
-48.17
-58.96
-69.11
-76.47
-78.64
-73.66
-60.75
-40.78
-16.23
9.44
32.79
51.28
63.81
70.56
72.59
71.15
67.35
62.01
55.73
49.02
42.35
36.14
30.66
26.03
22.25
19.27
17.05
15.48
14.38
13.39
12.02
9.79
6.39
1.75
-3.87
-10.00
-16.18
-22.04
-27.54
-32.94
-38.77
-45.67
-54.03
-63.53
-72.87
-79.79
-81.56
-75.85
-61.71
-40.13
-13.89
13.22
37.57
56.61
69.27
75.75
76.95
74.00
67.97
59.94
51.05
42.51
35.37
30.20
26.97
25.15
23.97
22.80
21.47
20.16
19.29
19.14
19.58
20.03
19.53
17.17
12.46
5.57
-2.68
-11.09
-18.61
-24.68
-29.44
-33.56
-38.01
-43.69
-51.12
-60.16
-69.87
-78.40
-83.32
-82.15
-73.21
-56.39
-33.32
-7.10
18.62
40.66
57.01
66.93
70.77
69.45
64.11
55.94
46.18
36.14
27.01
19.69
14.56
11.44
9.80
8.98
8.50
8.24
8.32
8.88
9.84
10.71
10.78
9.30
5.84
0.52
-6.05
-12.98
-19.41
-24.82
-29.14
-32.77
-36.50
-41.25
-47.72
-55.95
-64.97
-72.69
-76.35
-73.37
-62.35
-43.74
-19.88
5.71
29.40
48.36
61.20
67.79
68.91
65.69
59.29
50.82
41.35
31.90
23.37
16.38
11.18
7.65
5.48
4.32
3.92
4.18
5.00
6.18
7.30
7.71
6.79
4.09
-0.36
-6.14
-12.53
-18.82
-24.59
-29.93
-35.37
-41.71
-49.63
-59.23
-69.70
-79.16
-85.03
-84.68
-76.34
-59.84
-36.81
-10.30
16.08
39.12
56.77
68.23
73.82
74.43
71.20
65.32
57.90
50.02
42.61
36.29
31.29
27.49
24.49
21.85
19.29
16.79
14.56
12.90
12.00
11.74
11.61
10.81
8.53
4.32
-1.74
-8.99
-16.47
-23.27
-28.91
-33.50
-37.73
-42.57
-48.88
-57.10
-66.82
-76.62
-84.15
-86.67
-81.88
-68.75
-48.14
-22.67
3.98
28.19
47.41
60.55
67.83
70.22
68.82
64.59
58.33
50.83
42.98
35.71
29.76
25.51
22.86
21.33
20.24
19.05
17.52
15.81
14.32
13.44
13.27
13.45
13.29
11.93
8.75
3.58
-3.22
-10.86
-18.44
-25.23
-30.87
-35.49
-39.59
-43.89
-49.11
-55.75
-63.74
-72.29
-79.79
-84.04
-82.72
-74.17
-58.07
-35.79
-10.20
15.13
36.97
53.27
63.46
68.19
68.69
66.13
61.36
54.95
47.43
39.50
31.98
25.65
21.00
18.07
16.51
15.78
15.39
15.03
14.64
14.29
14.03
13.80
13.37
12.35
10.35
7.06
2.44
-3.32
-9.77
-16.36
-22.57
-28.06
-32.67
-36.51
-39.86
-43.17
-46.98
-51.81
-57.91
-65.01
-72.04
-77.16
-78.13
-72.97
-60.71
-41.97
-18.87
5.44
27.77
45.72
58.10
64.90
66.87
65.00
60.26
53.48
45.49
37.16
29.39
22.88
18.05
14.89
13.12
12.27
11.92
11.76
11.68
11.67
11.76
11.94
12.02
11.66
10.35
7.63
3.31
-2.44
-8.98
-15.49
-21.21
-25.75
-29.21
-32.12
-35.24
-39.27
-44.64
-51.34
-58.71
-65.49
-69.87
-69.91
-64.12
-51.96
-34.28
-13.10
8.81
28.73
44.59
55.32
60.78
61.53
58.45
52.53
44.75
36.10
27.53
19.88
13.70
9.16
6.07
4.00
2.52
1.43
0.80
0.81
1.59
2.96
4.37
5.01
4.18
1.48
-2.96
-8.56
-14.55
-20.24
-25.24
-29.52
-33.42
-37.49
-42.31
-48.32
-55.46
-62.99
-69.32
-72.32
-69.80
-60.38
-44.08
-22.59
1.06
23.46
41.74
54.27
60.80
62.13
59.47
53.99
46.67
38.24
29.43
20.93
13.36
7.14
2.36
-1.03
-3.23
-4.37
-4.55
-3.91
-2.79
-1.70
-1.27
-2.05
-4.30
-7.92
-12.48
-17.43
-22.25
-26.77
-31.20
-36.11
-42.18
-49.76
-58.55
-67.26
-73.84
-75.85
-71.31
-59.44
-41.05
-18.46
5.17
26.64
43.57
54.79
60.33
61.05
58.17
52.86
46.13
38.77
31.44
24.74
19.11
14.81
11.85
9.98
8.82
7.93
6.93
5.53
3.55
0.93
-2.39
-6.41
-11.16
-16.62
-22.74
-29.37
-36.38
-43.76
-51.63
-60.17
-69.24
-77.97
-84.60
-86.77
-82.26
-69.90
-50.27
-25.72
0.31
24.30
43.63
57.05
64.61
67.21
66.06
62.23
56.63
49.90
42.63
35.34
28.48
22.38
17.19
12.95
9.61
7.09
5.29
4.06
3.13
2.17
0.86
-1.03
-3.57
-6.70
-10.34
-14.49
-19.34
-25.17
-32.27
-40.75
-50.31
-60.02
-68.31
-73.06
-72.17
-64.18
-48.98
-28.05
-4.16
19.40
39.67
54.81
64.19
68.25
67.97
64.49
58.91
52.18
45.16
38.49
32.52
27.30
22.66
18.44
14.61
11.46
9.31
8.40
8.53
9.09
9.20
8.00
5.04
0.37
-5.41
-11.53
-17.29
-22.36
-26.90
-31.43
-36.71
-43.43
-51.87
-61.60
-71.22
-78.47
-80.69
-75.70
-62.61
-42.35
-17.52
8.32
31.74
50.36
63.21
70.52
73.18
72.24
68.60
62.99
56.16
48.96
42.25
36.76
32.84
30.35
28.75
27.34
25.55
23.17
20.41
17.78
15.78
14.57
13.83
12.81
10.61
6.63
0.80
-6.31
-13.80
-20.76
-26.76
-31.86
-36.62
-41.78
-47.98
-55.59
-64.52
-74.14
-83.09
-89.42
-90.87
-85.50
-72.46
-52.48
-27.88
-1.94
21.99
41.41
55.17
63.32
66.75
66.57
63.82
59.34
53.81
47.90
42.21
37.27
33.44
30.83
29.30
28.58
28.30
28.14
27.88
27.42
26.72
25.79
24.59
23.00
20.85
17.94
14.05
9.13
3.23
-3.39
-10.37
-17.24
-23.60
-29.18
-33.92
-37.98
-41.76
-45.81
-50.72
-56.89
-64.24
-71.90
-78.18
-80.78
-77.48
-66.97
-49.48
-26.87
-2.20
21.20
40.64
54.69
63.17
66.81
66.70
63.92
59.42
53.96
48.24
42.85
38.19
34.50
31.80
29.98
28.89
28.35
28.13
28.05
27.87
27.44
26.63
25.39
23.69
21.57
18.98
15.92
12.34
8.25
3.67
-1.32
-6.56
-11.82
-16.86
-21.47
-25.54
-29.07
-32.25
-35.40
-39.00
-43.50
-49.17
-55.71
-62.08
-66.48
-66.80
-61.34
-49.51
-32.24
-11.81
8.83
26.94
40.66
49.39
53.50
53.96
51.81
47.92
42.95
37.46
31.98
27.05
23.09
20.36
18.83
18.27
18.31
18.60
18.86
18.90
18.58
17.80
16.53
14.80
12.69
10.29
7.58
4.43
0.66
-3.83
-8.95
-14.45
-19.97
-25.20
-29.95
-34.12
-37.69
-40.77
-43.65
-46.81
-50.74
-55.63
-60.92
-65.21
-66.46
-62.69
-52.73
-36.85
-16.78
4.73
24.75
40.96
52.14
58.18
59.80
58.05
53.95
48.34
41.90
35.25
29.01
23.75
19.87
17.44
16.26
15.87
15.81
15.69
15.35
14.78
14.04
13.20
12.24
11.02
9.28
6.71
3.12
-1.51
-6.86
-12.46
-17.73
-22.29
-26.01
-29.05
-31.72
-34.39
-37.40
-41.07
-45.64
-51.08
-56.93
-62.11
-64.95
-63.70
-57.07
-44.84
-28.07
-8.92
10.11
26.73
39.52
47.99
52.35
53.19
51.19
46.95
41.11
34.39
27.61
21.62
17.04
14.11
12.64
12.10
11.90
11.58
11.04
10.43
9.99
9.84
9.84
9.62
8.69
6.72
3.58
-0.56
-5.27
-10.05
-14.46
-18.25
-21.44
-24.25
-27.07
-30.33
-34.38
-39.47
-45.51
-51.89
-57.48
-60.63
-59.61
-53.18
-41.10
-24.43
-5.35
13.48
29.68
41.68
48.99
51.99
51.53
48.54
43.81
38.04
31.84
25.88
20.81
17.07
14.82
13.81
13.58
13.61
13.59
13.45
13.39
13.61
14.12
14.64
14.60
13.40
10.58
6.07
0.19
-6.40
-12.94
-18.86
-23.94
-28.46
-32.97
-38.17
-44.53
-52.06
-60.18
-67.69
-72.93
-74.17
-70.03
-59.93
-44.41
-25.10
-4.38
15.23
31.59
43.40
50.28
52.55
51.00
46.59
40.34
33.23
26.15
19.83
14.69
10.86
8.14
6.22
4.76
3.58
2.66
2.06
1.83
1.92
2.14
2.12
1.47
-0.11
-2.75
-6.28
-10.33
-14.46
-18.32
-21.89
-25.48
-29.66
-35.12
-42.22
-50.70
-59.47
-66.64
-69.99
-67.58
-58.49
-43.23
-23.66
-2.52
17.41
33.95
45.92
53.10
55.89
55.02
51.23
45.29
37.96
30.10
22.45
15.63
9.99
5.62
2.42
0.28
-0.88
-1.10
-0.53
0.50
1.41
1.53
0.30
-2.45
-6.44
-11.04
-15.51
-19.35
-22.51
-25.37
-28.68
-33.24
-39.53
-47.45
-56.06
-63.57
-67.78
-66.55
-58.65
-44.17
-24.69
-2.88
18.29
36.25
49.38
57.14
59.92
58.64
54.42
48.34
41.33
34.07
27.05
20.58
14.89
10.18
6.66
4.44
3.46
3.44
3.88
4.20
3.90
2.65
0.43
-2.59
-6.19
-10.17
-14.48
-19.20
-24.55
-30.84
-38.41
-47.44
-57.62
-67.91
-76.42
-80.77
-78.74
-69.13
-52.36
-30.48
-6.67
15.78
34.31
47.56
55.39
58.51
57.97
54.85
50.07
44.36
38.34
32.46
27.02
22.21
18.10
14.66
11.92
9.89
8.50
7.62
6.89
5.90
4.23
1.63
-1.89
-6.11
-10.80
-15.83
-21.27
-27.30
-34.19
-42.17
-51.30
-61.27
-71.11
-79.09
-82.93
-80.40
-70.16
-52.42
-29.20
-3.80
20.21
39.98
54.06
62.39
65.88
65.75
63.12
58.89
53.72
48.18
42.75
37.79
33.43
29.61
26.19
23.09
20.38
18.30
17.02
16.46
16.21
15.52
13.62
10.01
4.68
-1.86
-8.85
-15.57
-21.63
-27.14
-32.67
-39.06
-47.14
-57.31
-69.07
-80.80
-89.84
-93.15
-88.31
-74.50
-52.99
-26.89
-0.09
23.88
42.82
56.08
64.20
68.20
68.98
67.17
63.24
57.81
51.76
46.10
41.64
38.71
37.06
35.99
34.76
32.91
30.55
28.14
26.34
25.53
25.53
25.63
24.79
22.08
17.05
9.96
1.65
-6.74
-14.29
-20.58
-25.84
-30.79
-36.34
-43.31
-52.15
-62.78
-74.37
-85.27
-93.15
-95.43
-90.04
-76.24
-55.07
-29.23
-2.31
22.19
41.85
55.75
64.22
68.30
69.09
67.44
63.94
59.12
53.64
48.23
43.58
40.10
37.82
36.44
35.54
34.74
33.79
32.60
31.21
29.69
28.13
26.50
24.66
22.25
18.79
13.89
7.45
-0.20
-8.32
-16.10
-22.89
-28.53
-33.32
-37.89
-42.93
-49.02
-56.46
-65.15
-74.37
-82.72
-88.13
-88.31
-81.41
-66.81
-45.53
-20.12
6.02
29.60
48.35
61.31
68.77
71.68
71.16
68.13
63.31
57.33
50.89
44.76
39.64
35.98
33.90
33.12
33.14
33.42
33.52
33.22
32.46
31.30
29.80
27.91
25.49
22.27
17.99
12.53
5.98
-1.30
-8.77
-15.87
-22.16
-27.50
-32.02
-36.15
-40.44
-45.48
-51.72
-59.24
-67.52
-75.29
-80.63
-81.31
-75.52
-62.51
-43.03
-19.31
5.53
28.31
46.60
59.17
65.94
67.64
65.28
59.86
52.32
43.65
34.88
27.13
21.24
17.62
16.06
15.93
16.43
16.98
17.40
17.84
18.54
19.57
20.57
20.87
19.70
16.53
11.34
4.60
-2.83
-10.02
-16.31
-21.50
-25.86
-30.02
-34.78
-40.84
-48.63
-57.94
-67.75
-76.18
-80.80
-79.31
-70.37
-54.17
-32.54
-8.45
14.90
34.91
50.10
60.03
65.05
65.83
63.13
57.79
50.72
42.99
35.63
29.49
25.00
22.10
20.34
19.10
17.86
16.43
15.01
14.01
13.73
14.08
14.47
13.98
11.69
7.14
0.51
-7.43
-15.56
-22.86
-28.80
-33.48
-37.59
-42.19
-48.28
-56.50
-66.58
-77.26
-86.27
-90.83
-88.48
-77.90
-59.52
-35.55
-9.31
15.70
36.73
52.30
62.17
66.92
67.48
64.78
59.73
53.23
46.26
39.75
34.37
30.37
27.51
25.22
22.92
20.32
17.57
15.16
13.61
13.18
13.57
14.00
13.43
11.02
6.45
0.12
-7.12
-14.24
-20.54
-25.83
-30.51
-35.31
-41.08
-48.41
-57.43
-67.56
-77.43
-84.89
-87.45
-83.03
-70.70
-51.24
-27.06
-1.59
21.81
40.69
53.98
61.84
65.15
64.92
62.07
57.34
51.50
45.39
39.81
35.32
32.04
29.66
27.60
25.33
22.72
20.04
17.83
16.57
16.34
16.63
16.48
14.90
11.22
5.48
-1.66
-9.18
-16.17
-22.14
-27.18
-31.85
-36.95
-43.18
-50.97
-60.22
-70.09
-78.93
-84.47
-84.30
-76.72
-61.41
-39.83
-14.93
9.74
31.06
47.15
57.53
62.78
63.96
62.04
57.79
51.87
45.01
38.09
31.97
27.22
23.92
21.66
19.85
18.00
16.02
14.19
12.97
12.70
13.26
13.98
13.86
11.95
7.79
1.60
-5.73
-13.05
-19.40
-24.38
-28.30
-31.94
-36.24
-42.01
-49.59
-58.63
-67.98
-75.74
-79.57
-77.28
-67.63
-50.91
-29.03
-5.07
17.61
36.25
49.32
56.59
58.79
57.08
52.61
46.36
39.14
31.69
24.74
18.84
14.38
11.37
9.56
8.54
7.98
7.74
7.83
8.30
8.97
9.45
9.11
7.39
4.02
-0.81
-6.56
-12.53
-18.10
-23.00
-27.39
-31.85
-37.14
-44.00
-52.60
-62.26
-71.23
-76.95
-76.81
-69.06
-53.62
-32.29
-8.27
14.83
34.11
47.93
56.03
59.06
58.03
53.93
47.63
39.99
31.89
24.18
17.51
12.21
8.26
5.49
3.77
3.03
3.24
4.28
5.76
7.03
7.36
6.19
3.33
-1.01
-6.29
-11.95
-17.58
-23.08
-28.63
-34.66
-41.66
-49.96
-59.52
-69.61
-78.64
-84.29
-84.10
-76.30
-60.60
-38.50
-13.01
12.29
34.26
50.91
61.60
66.72
67.24
64.26
58.85
52.03
44.78
37.87
31.85
26.87
22.83
19.48
16.63
14.27
12.51
11.45
11.05
10.94
10.54
9.13
6.21
1.61
-4.39
-11.17
-18.03
-24.46
-30.33
-35.94
-41.93
-49.04
-57.78
-67.98
-78.50
-87.17
-91.25
-88.22
-76.74
-57.35
-32.42
-5.55
19.60
40.23
54.96
63.71
67.27
66.76
63.27
57.83
51.45
45.09
39.54
35.17
31.93
29.36
26.92
24.27
21.51
19.09
17.54
17.11
17.52
17.93
17.28
14.76
10.06
3.53
-3.99
-11.63
-18.72
-25.03
-30.72
-36.29
-42.47
-49.94
-59.10
-69.54
-79.82
-87.46
-89.52
-83.67
-69.14
-47.24
-21.07
5.47
28.92
47.20
59.77
67.26
70.74
71.10
68.90
64.56
58.65
52.00
45.65
40.49
36.97
34.90
33.67
32.51
30.92
28.83
26.56
24.62
23.36
22.65
21.93
20.35
17.11
11.83
4.68
-3.58
-11.95
-19.57
-26.02
-31.45
-36.46
-41.84
-48.25
-56.14
-65.48
-75.61
-85.09
-91.75
-93.11
-87.10
-72.90
-51.46
-25.44
1.55
25.99
45.41
58.85
66.64
69.88
69.80
67.39
63.31
58.12
52.36
46.63
41.59
37.69
35.08
33.57
32.70
31.95
30.96
29.63
28.10
26.59
25.27
24.07
22.70
20.70
17.54
12.85
6.57
-0.98
-9.13
-17.10
-24.18
-30.05
-34.89
-39.20
-43.65
-48.88
-55.27
-62.87
-71.25
-79.36
-85.52
-87.58
-83.51
-72.09
-53.59
-29.89
-4.12
20.26
40.44
54.89
63.44
66.93
66.61
63.66
59.01
53.30
47.13
41.08
35.66
31.32
28.23
26.33
25.33
24.90
24.73
24.66
24.60
24.49
24.20
23.56
22.32
20.30
17.40
13.66
9.22
4.25
-1.08
-6.62
-12.24
-17.81
-23.18
-28.22
-32.84
-37.08
-41.20
-45.70
-51.15
-57.92
-65.67
-73.13
-78.19
-78.43
-71.95
-58.25
-38.48
-15.26
8.18
28.92
45.03
55.82
61.56
63.03
61.03
56.26
49.39
41.26
32.91
25.44
19.75
16.25
14.70
14.43
14.62
14.67
14.37
13.84
13.35
13.07
12.90
12.55
11.59
9.62
6.41
1.97
-3.44
-9.40
-15.40
-20.98
-25.88
-30.10
-33.88
-37.69
-42.07
-47.52
-54.23
-61.86
-69.29
-74.71
-75.98
-71.29
-59.88
-42.41
-20.94
1.65
22.52
39.50
51.47
58.26
60.33
58.38
53.23
45.82
37.21
28.62
21.21
15.78
12.58
11.24
11.02
11.11
11.04
10.75
10.57
10.86
11.72
12.78
13.30
12.46
9.65
4.84
-1.47
-8.42
-15.11
-20.94
-25.75
-29.93
-34.19
-39.41
-46.25
-54.83
-64.44
-73.46
-79.60
-80.46
-74.31
-60.78
-41.12
-17.88
5.78
26.98
43.75
55.23
61.47
63.07
60.82
55.64
48.49
40.43
32.56
25.73
20.37
16.44
13.51
11.04
8.73
6.62
5.04
4.35
4.63
5.49
6.11
5.55
3.09
-1.44
-7.57
-14.42
-21.01
-26.68
-31.30
-35.35
-39.73
-45.44
-53.16
-62.85
-73.45
-82.87
-88.36
-87.30
-78.06
-60.72
-37.30
-11.14
14.00
35.06
50.36
59.67
63.78
63.88
61.09
56.33
50.37
43.95
37.76
32.33
27.83
24.13
20.85
17.71
14.65
11.91
9.83
8.64
8.18
7.94
7.15
5.12
1.51
-3.57
-9.57
-15.81
-21.63
-26.74
-31.27
-35.74
-40.93
-47.51
-55.68
-64.83
-73.39
-79.02
-79.24
-72.24
-57.63
-36.74
-12.38
12.03
33.36
49.59
59.99
64.99
65.62
63.10
58.48
52.66
46.30
39.94
33.96
28.57
23.84
19.78
16.43
13.86
12.16
11.32
11.13
11.22
11.06
10.16
8.16
4.98
0.78
-4.13
-9.39
-14.78
-20.19
-25.79
-31.88
-38.90
-47.10
-56.28
-65.44
-72.76
-75.85
-72.54
-61.71
-43.91
-21.36
2.62
24.63
42.14
53.99
60.30
61.99
60.24
56.08
50.31
43.57
36.46
29.56
23.34
18.09
13.87
10.60
8.14
6.36
5.18
4.50
4.10
3.71
2.92
1.37
-1.17
-4.78
-9.28
-14.35
-19.65
-24.90
-30.09
-35.53
-41.76
-49.27
-57.98
-66.90
-74.01
-76.76
-72.84
-61.23
-42.66
-19.60
4.57
26.51
43.85
55.55
61.76
63.29
61.16
56.31
49.56
41.65
33.34
25.39
18.45
13.03
9.37
7.42
6.92
7.43
8.39
9.23
9.37
8.41
6.16
2.70
-1.69
-6.61
-11.70
-16.79
-21.93
-27.40
-33.64
-41.18
-50.30
-60.80
-71.61
-80.69
-85.41
-83.23
-72.74
-54.28
-30.16
-3.94
20.59
40.44
54.10
61.51
63.63
61.83
57.45
51.56
44.98
38.34
32.12
26.61
21.95
18.18
15.26
13.21
12.01
11.60
11.72
11.93
11.65
10.33
7.63
3.50
-1.78
-7.75
-13.93
-20.00
-25.87
-31.78
-38.23
-45.88
-55.15
-65.80
-76.57
-85.13
-88.64
-84.57
-71.80
-51.16
-25.40
1.67
26.31
45.89
59.31
66.81
69.43
68.35
64.60
59.07
52.53
45.80
39.57
34.31
30.09
26.73
23.92
21.45
19.36
17.86
17.08
16.89
16.77
15.96
13.73
9.69
4.01
-2.67
-9.51
-15.89
-21.64
-27.12
-33.09
-40.38
-49.55
-60.50
-72.13
-82.37
-88.47
-87.77
-78.58
-60.95
-36.88
-9.82
16.36
38.43
54.62
64.65
69.35
69.96
67.63
63.32
57.77
51.74
45.93
40.88
36.79
33.50
30.61
27.76
24.82
22.05
19.88
18.66
18.37
18.47
18.06
16.18
12.25
6.27
-1.13
-8.98
-16.35
-22.69
-28.01
-32.86
-38.06
-44.53
-52.81
-62.76
-73.20
-81.91
-86.05
-83.05
-71.56
-52.17
-27.41
-0.96
23.49
43.30
57.36
65.90
69.90
70.35
68.01
63.39
57.03
49.73
42.49
36.29
31.73
28.90
27.33
26.36
25.41
24.25
23.01
22.01
21.45
21.17
20.61
19.02
15.75
10.57
3.81
-3.76
-11.20
-17.80
-23.36
-28.20
-33.06
-38.79
-46.09
-55.17
-65.56
-75.94
-84.18
-87.79
-84.51
-73.20
-54.36
-30.22
-4.19
20.23
40.33
54.80
63.61
67.54
67.58
64.56
59.20
52.26
44.73
37.69
32.08
28.38
26.45
25.70
25.35
24.84
23.98
22.97
22.15
21.83
21.94
22.10
21.57
19.59
15.62
9.59
2.02
-6.19
-14.00
-20.66
-25.99
-30.33
-34.47
-39.30
-45.57
-53.58
-62.98
-72.65
-80.67
-84.68
-82.48
-72.82
-55.92
-33.67
-9.09
14.53
34.53
49.44
58.98
63.73
64.51
62.18
57.43
50.97
43.61
36.30
29.92
25.10
22.04
20.47
19.80
19.43
18.95
18.31
17.74
17.55
17.86
18.44
18.64
17.64
14.75
9.71
2.90
-4.87
-12.55
-19.27
-24.67
-28.96
-32.83
-37.13
-42.65
-49.85
-58.60
-68.07
-76.62
-82.04
-82.03
-74.94
-60.50
-40.06
-16.32
7.42
28.26
44.30
54.90
60.38
61.56
59.36
54.60
48.13
40.81
33.59
27.33
22.63
19.68
18.20
17.61
17.27
16.76
15.99
15.27
14.98
15.38
16.28
17.06
16.83
14.73
10.37
3.95
-3.75
-11.65
-18.77
-24.55
-29.02
-32.79
-36.73
-41.72
-48.33
-56.54
-65.58
-73.89
-79.30
-79.59
-73.18
-59.69
-40.32
-17.51
5.69
26.49
43.03
54.50
60.99
63.01
61.23
56.35
49.23
40.93
32.66
25.51
20.17
16.76
14.85
13.77
12.90
11.96
11.07
10.55
10.65
11.34
12.11
12.22
10.87
7.61
2.47
-3.97
-10.87
-17.37
-22.91
-27.44
-31.39
-35.58
-40.88
-47.89
-56.51
-65.73
-73.68
-77.94
-76.30
-67.41
-51.39
-29.92
-5.80
17.73
37.89
52.91
62.17
66.00
65.31
61.15
54.58
46.59
38.13
30.13
23.35
18.24
14.81
12.67
11.20
9.90
8.62
7.54
7.01
7.24
8.03
8.76
8.58
6.77
3.05
-2.29
-8.55
-14.84
-20.53
-25.36
-29.57
-33.81
-38.85
-45.33
-53.36
-62.22
-70.30
-75.36
-75.15
-68.16
-54.25
-34.78
-12.34
10.10
29.88
45.28
55.59
60.88
61.71
58.86
53.25
45.95
38.06
30.59
24.22
19.15
15.17
11.89
8.98
6.49
4.70
4.01
4.56
6.05
7.69
8.52
7.74
4.99
0.46
-5.19
-11.17
-16.83
-21.85
-26.37
-30.91
-36.17
-42.83
-51.07
-60.35
-69.12
-75.14
-75.96
-69.81
-56.30
-36.74
-13.84
9.02
28.78
43.45
52.43
56.23
55.95
52.73
47.44
40.65
32.84
24.55
16.48
9.32
3.67
-0.20
-2.39
-3.27
-3.36
-3.12
-2.91
-2.98
-3.47
-4.49
-6.17
-8.58
-11.74
-15.58
-20.06
-25.22
-31.29
-38.55
-47.10
-56.48
-65.40
-71.79
-73.34
-68.26
-55.99
-37.62
-15.59
6.95
27.07
42.79
53.29
58.73
59.87
57.58
52.65
45.75
37.55
28.82
20.35
12.91
7.04
2.97
0.60
-0.45
-0.72
-0.81
-1.22
-2.27
-4.11
-6.66
-9.78
-13.32
-17.18
-21.43
-26.24
-31.92
-38.84
-47.29
-57.17
-67.68
-77.16
-83.21
-83.37
-75.91
-60.63
-39.15
-14.50
9.78
30.64
46.21
56.00
60.58
61.05
58.52
53.96
48.07
41.46
34.70
28.31
22.71
18.18
14.77
12.36
10.75
9.66
8.84
8.01
6.89
5.24
2.90
-0.17
-3.84
-7.97
-12.45
-17.44
-23.26
-30.44
-39.43
-50.25
-62.15
-73.44
-81.61
-83.95
-78.42
-64.43
-43.28
-17.87
8.12
31.26
49.19
60.96
66.88
68.04
65.74
61.20
55.42
49.16
42.97
37.22
32.08
27.60
23.77
20.62
18.17
16.43
15.28
14.46
13.59
12.23
10.03
6.81
2.64
-2.25
-7.57
-13.10
-18.81
-24.87
-31.66
-39.68
-49.31
-60.49
-72.36
-83.04
-89.91
-90.26
-82.22
-65.59
-42.14
-15.15
11.56
34.70
52.32
63.86
69.88
71.48
69.77
65.73
60.21
53.99
47.79
42.19
37.46
33.59
30.35
27.50
24.92
22.75
21.23
20.61
20.79
21.34
21.48
20.33
17.27
12.13
5.30
-2.38
-9.93
-16.53
-21.83
-26.10
-30.22
-35.37
-42.61
-52.28
-63.54
-74.34
-81.77
-82.87
-75.70
-60.05
-37.62
-11.56
14.44
37.22
54.73
66.24
72.03
72.92
69.94
64.15
56.62
48.51
40.90
34.64
30.12
27.25
25.54
24.37
23.31
22.26
21.40
21.03
21.21
21.67
21.72
20.53
17.46
12.34
5.51
-2.19
-9.85
-16.73
-22.56
-27.60
-32.48
-38.05
-45.00
-53.57
-63.19
-72.34
-78.67
-79.60
-73.16
-58.76
-37.65
-12.63
12.74
35.21
52.59
64.07
69.91
70.95
68.14
62.39
54.62
45.86
37.25
29.77
23.99
19.99
17.39
15.69
14.53
13.86
13.85
14.60
15.93
17.29
17.84
16.79
13.67
8.57
2.06
-5.05
-12.03
-18.55
-24.77
-31.26
-38.80
-48.05
-59.20
-71.62
-83.73
-93.09
-96.97
-93.10
-80.57
-60.33
-35.06
-8.47
15.78
35.07
48.29
55.71
58.43
57.73
54.73
50.26
45.02
39.71
34.94
31.19
28.49
26.59
25.00
23.43
21.93
20.86
20.59
21.18
22.10
22.30
20.66
16.43
9.63
1.01
-8.22
-16.88
-24.31
-30.51
-36.15
-42.28
-49.99
-59.99
-72.05
-84.76
-95.48
-100.93
-98.22
-85.96
-64.93
-38.04
-9.37
17.06
38.47
53.73
63.21
68.01
69.31
67.97
64.65
59.95
54.60
49.47
45.27
42.35
40.65
39.68
38.86
37.77
36.26
34.51
32.80
31.41
30.40
29.54
28.39
26.30
22.64
17.03
9.52
0.68
-8.55
-17.14
-24.38
-30.16
-34.99
-39.80
-45.65
-53.32
-63.02
-74.17
-85.26
-93.94
-97.51
-93.62
-81.17
-60.86
-35.15
-7.68
17.86
38.68
53.42
62.16
65.90
65.96
63.57
59.67
55.04
50.27
45.84
42.13
39.31
37.35
36.10
35.36
34.98
34.90
35.07
35.41
35.71
35.63
34.78
32.83
29.66
25.37
20.29
14.78
9.13
3.47
-2.30
-8.31
-14.56
-20.85
-26.79
-31.98
-36.22
-39.70
-42.96
-46.80
-52.06
-59.23
-68.23
-78.02
-86.63
-91.43
-89.86
-80.28
-62.77
-39.26
-13.06
12.10
33.21
48.69
58.38
63.14
64.16
62.44
58.70
53.51
47.51
41.48
36.25
32.39
30.07
29.03
28.76
28.78
28.80
28.80
28.84
28.89
28.71
27.92
26.17
23.31
19.46
14.90
9.90
4.50
-1.45
-8.11
-15.50
-23.30
-30.87
-37.51
-42.73
-46.45
-49.13
-51.60
-54.88
-59.81
-66.74
-75.21
-83.82
-90.28
-91.98
-86.74
-73.70
-53.73
-29.37
-4.03
18.98
37.35
50.10
57.48
60.43
60.00
57.08
52.30
46.22
39.47
32.81
27.04
22.80
20.37
19.60
19.96
20.77
21.47
21.83
21.92
21.95
22.03
22.00
21.37
19.49
15.80
10.09
2.60
-5.94
-14.64
-22.68
-29.63
-35.50
-40.73
-45.90
-51.61
-58.29
-66.06
-74.66
-83.19
-90.03
-92.96
-89.78
-79.03
-60.76
-36.77
-10.21
15.36
36.92
52.81
62.75
67.45
68.09
65.73
61.17
55.03
47.99
40.86
34.48
29.55
26.34
24.61
23.72
22.99
21.98
20.71
19.60
19.14
19.59
20.70
21.70
21.57
19.37
14.71
7.85
-0.30
-8.59
-15.96
-21.90
-26.51
-30.47
-34.73
-40.23
-47.63
-56.99
-67.65
-78.02
-85.76
-88.23
-83.25
-69.93
-49.19
-23.70
2.88
26.95
45.93
58.67
65.38
67.02
64.73
59.52
52.21
43.65
34.81
26.69
20.16
15.71
13.27
12.33
12.16
12.13
11.97
11.76
11.83
12.50
13.76
15.16
15.87
14.96
11.77
6.23
-1.10
-9.16
-16.83
-23.31
-28.38
-32.41
-36.18
-40.57
-46.37
-53.98
-63.24
-73.18
-81.90
-86.89
-85.63
-76.49
-59.49
-36.48
-10.70
14.24
35.40
51.15
61.23
66.23
67.00
64.32
58.80
51.18
42.41
33.65
26.01
20.23
16.44
14.24
12.93
11.89
10.84
9.93
9.60
10.20
11.72
13.58
14.76
14.18
11.11
5.56
-1.75
-9.68
-17.11
-23.42
-28.60
-33.15
-37.84
-43.43
-50.48
-59.18
-69.19
-79.34
-87.60
-91.34
-88.07
-76.43
-56.89
-31.85
-4.90
20.22
40.78
55.58
64.70
68.92
69.11
65.91
59.90
51.88
42.96
34.44
27.43
22.46
19.37
17.50
16.12
14.74
13.39
12.46
12.40
13.33
14.85
16.09
15.98
13.75
9.16
2.66
-4.85
-12.36
-19.17
-25.11
-30.54
-36.16
-42.76
-50.92
-60.72
-71.46
-81.54
-88.65
-90.26
-84.45
-70.59
-49.82
-24.73
1.28
24.98
44.13
57.69
65.62
68.46
66.98
62.00
54.48
45.60
36.68
28.89
23.00
19.09
16.74
15.22
13.94
12.72
11.82
11.62
12.35
13.69
14.90
14.97
13.13
9.10
3.21
-3.76
-10.89
-17.48
-23.22
-28.28
-33.23
-38.91
-46.13
-55.31
-66.03
-76.73
-84.79
-87.19
-81.51
-66.92
-44.71
-17.95
9.41
33.76
52.82
65.84
73.21
75.83
74.58
70.10
63.05
54.32
45.09
36.64
29.90
25.21
22.26
20.34
18.74
17.12
15.59
14.54
14.31
14.88
15.70
15.85
14.35
10.51
4.27
-3.76
-12.52
-20.85
-27.96
-33.59
-38.18
-42.63
-48.03
-55.31
-64.78
-75.82
-86.64
-94.55
-96.51
-90.18
-74.78
-51.60
-23.70
4.96
30.72
51.10
65.14
73.11
75.92
74.60
70.01
62.99
54.50
45.71
37.84
31.78
27.85
25.71
24.50
23.35
21.70
19.60
17.59
16.35
16.25
17.13
18.17
18.29
16.49
12.31
5.94
-1.84
-10.02
-17.67
-24.31
-29.95
-35.03
-40.23
-46.30
-53.83
-62.99
-73.28
-83.30
-90.79
-93.07
-87.81
-73.99
-52.47
-25.89
2.03
27.61
48.23
62.68
71.02
74.00
72.56
67.54
59.78
50.36
40.59
31.81
24.98
20.44
17.76
16.18
14.94
13.77
12.87
12.70
13.59
15.35
17.27
18.22
17.20
13.66
7.75
0.23
-7.85
-15.49
-22.11
-27.65
-32.54
-37.56
-43.60
-51.29
-60.69
-70.89
-79.98
-85.30
-84.23
-75.06
-57.80
-34.35
-8.00
17.58
39.31
55.38
65.32
69.57
69.02
64.65
57.43
48.43
38.79
29.61
21.77
15.67
11.27
8.26
6.27
5.12
4.80
5.31
6.48
7.80
8.52
7.90
5.46
1.23
-4.37
-10.62
-16.91
-22.89
-28.64
-34.60
-41.54
-50.12
-60.54
-72.08
-82.88
-90.13
-90.88
-83.05
-66.35
-42.58
-15.17
11.85
35.02
52.27
63.05
67.98
68.15
64.74
58.67
50.74
41.77
32.57
23.98
16.66
10.99
7.02
4.63
3.58
3.59
4.31
5.30
5.96
5.67
3.96
0.68
-3.94
-9.44
-15.39
-21.56
-28.06
-35.33
-43.96
-54.41
-66.61
-79.60
-91.29
-98.76
-98.95
-89.74
-70.88
-44.36
-13.92
16.01
41.58
60.45
72.01
77.06
77.07
73.60
67.99
61.27
54.19
47.27
40.85
35.07
30.02
25.71
22.25
19.74
18.17
17.32
16.73
15.83
14.09
11.17
7.05
1.92
-3.95
-10.33
-17.11
-24.39
-32.44
-41.70
-52.60
-65.19
-78.68
-91.11
-99.53
-100.74
-92.39
-74.08
-47.72
-17.08
13.36
39.76
59.81
72.91
79.70
81.41
79.25
74.35
67.68
60.26
53.03
46.72
41.61
37.56
34.14
30.92
27.77
24.87
22.63
21.39
21.12
21.26
20.88
18.91
14.62
7.91
-0.59
-9.78
-18.48
-25.95
-32.21
-37.95
-44.40
-52.82
-63.91
-77.32
-91.29
-102.81
-108.30
-104.64
-90.37
-66.41
-35.88
-3.20
27.26
52.40
70.86
82.79
89.14
90.99
89.23
84.64
78.07
70.63
63.47
57.47
52.98
49.67
46.86
43.84
40.28
36.40
32.76
29.99
28.32
27.44
26.49
24.39
20.25
13.77
5.29
-4.30
-13.86
-22.40
-29.44
-35.10
-40.05
-45.37
-52.17
-61.26
-72.63
-85.12
-96.33
-102.95
-101.81
-90.92
-70.47
-42.93
-12.37
16.86
41.36
59.48
71.18
77.42
79.39
77.99
73.91
67.80
60.47
52.92
46.13
40.74
36.97
34.63
33.25
32.28
31.31
30.08
28.59
26.97
25.42
23.98
22.46
20.40
17.18
12.29
5.56
-2.65
-11.55
-20.14
-27.55
-33.39
-37.83
-41.57
-45.57
-50.79
-57.95
-67.16
-77.76
-88.08
-95.68
-97.76
-92.04
-77.61
-55.43
-28.20
0.34
26.56
47.77
62.70
71.38
74.62
73.48
68.99
62.10
53.74
45.00
36.94
30.50
26.13
23.73
22.66
22.03
21.08
19.48
17.39
15.33
13.80
12.95
12.42
11.43
9.12
4.90
-1.22
-8.68
-16.50
-23.67
-29.57
-34.09
-37.71
-41.24
-45.62
-51.58
-59.41
-68.64
-77.94
-85.15
-87.67
-83.25
-70.75
-50.75
-25.55
1.42
26.59
47.16
61.66
69.85
72.34
70.13
64.33
56.04
46.43
36.68
27.81
20.52
15.00
11.05
8.18
5.98
4.26
3.16
2.90
3.61
5.04
6.55
7.17
6.00
2.51
-3.20
-10.38
-17.94
-24.86
-30.59
-35.22
-39.48
-44.43
-51.08
-59.86
-70.25
-80.56
-88.13
-90.02
-83.90
-69.00
-46.58
-19.60
8.07
32.88
52.41
65.72
73.02
75.11
72.95
67.41
59.45
50.20
40.96
32.85
26.56
22.12
19.07
16.71
14.59
12.62
11.08
10.33
10.42
11.00
11.26
10.31
7.45
2.53
-4.06
-11.45
-18.67
-25.00
-30.20
-34.62
-39.07
-44.61
-52.14
-61.95
-73.30
-84.25
-91.88
-93.01
-85.31
-68.20
-43.32
-14.13
15.08
40.49
59.65
71.80
77.51
77.99
74.55
68.31
60.26
51.35
42.56
34.72
28.32
23.41
19.61
16.43
13.55
11.04
9.23
8.48
8.76
9.52
9.79
8.55
5.17
-0.27
-7.08
-14.25
-20.91
-26.66
-31.66
-36.60
-42.37
-49.83
-59.34
-70.34
-81.12
-88.98
-90.80
-84.14
-68.22
-44.47
-16.23
12.26
37.08
55.68
67.23
72.34
72.37
68.77
62.73
55.07
46.49
37.55
28.85
20.93
14.23
9.01
5.34
3.12
2.05
1.66
1.45
0.92
-0.30
-2.32
-5.10
-8.42
-12.06
-15.94
-20.11
-24.85
-30.55
-37.70
-46.64
-57.17
-68.27
-77.90
-83.33
-81.84
-71.81
-53.42
-28.89
-1.84
23.75
44.76
59.53
67.93
70.82
69.35
64.51
57.05
47.62
37.02
26.25
16.44
8.53
3.09
0.11
-0.94
-0.89
-0.59
-0.70
-1.48
-2.90
-4.70
-6.69
-8.86
-11.40
-14.64
-18.97
-24.75
-32.27
-41.68
-52.74
-64.48
-74.96
-81.49
-81.27
-72.33
-54.53
-29.81
-1.78
25.37
48.11
64.43
74.03
77.80
77.07
73.00
66.33
57.54
47.22
36.22
25.64
16.58
9.79
5.40
2.91
1.41
-0.07
-2.12
-4.88
-8.00
-10.98
-13.51
-15.71
-18.15
-21.58
-26.68
-33.80
-42.95
-53.81
-65.61
-77.06
-86.14
-90.34
-87.19
-75.19
-54.61
-27.78
1.45
28.84
51.03
66.32
74.76
77.59
76.37
72.37
66.40
58.93
50.45
41.67
33.42
26.44
21.10
17.25
14.33
11.57
8.42
4.70
0.63
-3.33
-6.79
-9.64
-12.16
-14.91
-18.47
-23.35
-29.91
-38.39
-48.87
-61.06
-73.88
-85.29
-92.42
-92.27
-82.78
-63.77
-37.25
-7.03
22.44
47.40
65.64
76.77
81.72
82.04
79.16
74.18
67.79
60.52
52.88
45.37
38.47
32.48
27.48
23.39
20.07
17.36
15.12
13.15
11.16
8.77
5.63
1.54
-3.44
-9.06
-15.03
-21.19
-27.69
-35.02
-43.80
-54.57
-67.27
-80.83
-92.98
-100.64
-100.66
-91.02
-71.72
-45.12
-15.28
13.28
36.96
53.94
64.18
68.70
68.78
65.28
58.74
49.63
38.84
27.67
17.63
9.94
5.10
2.85
2.30
2.41
2.33
1.62
0.30
-1.33
-3.01
-4.65
-6.48
-8.98
-12.73
-18.26
-25.96
-35.96
-47.96
-60.96
-73.11
-81.78
-84.17
-78.17
-63.23
-40.81
-14.06
13.09
37.16
55.93
68.68
75.73
77.85
75.69
69.77
60.72
49.60
37.97
27.54
19.58
14.51
11.75
10.06
8.10
5.08
0.97
-3.59
-7.73
-10.86
-12.97
-14.68
-17.02
-21.08
-27.75
-37.45
-49.95
-64.14
-77.93
-88.46
-92.61
-87.96
-73.68
-51.03
-23.12
5.96
32.35
53.40
68.07
76.62
79.95
78.99
74.44
66.95
57.35
46.86
36.89
28.64
22.64
18.58
15.49
12.26
8.21
3.39
-1.45
-5.35
-7.70
-8.60
-8.94
-10.07
-13.42
-20.02
-30.21
-43.44
-58.09
-71.59
-80.77
-82.60
-75.19
-58.50
-34.60
-7.12
19.89
43.12
60.74
72.35
78.51
80.00
77.48
71.47
62.65
52.14
41.45
32.03
24.85
20.02
16.82
14.10
10.82
6.56
1.63
-3.11
-6.75
-8.90
-9.90
-10.87
-13.26
-18.43
-27.15
-39.29
-53.52
-67.46
-78.00
-81.98
-77.17
-63.04
-41.14
-14.73
12.22
36.16
54.86
67.59
74.77
77.25
75.81
70.98
63.29
53.52
42.85
32.62
24.01
17.63
13.34
10.38
7.77
4.72
0.98
-3.09
-6.87
-9.78
-11.66
-12.96
-14.54
-17.46
-22.67
-30.74
-41.61
-54.37
-67.09
-77.02
-81.02
-76.55
-62.67
-40.57
-13.40
14.62
39.56
58.79
71.37
77.75
79.10
76.64
71.34
63.95
55.19
45.86
36.77
28.62
21.84
16.59
12.76
10.09
8.15
6.47
4.51
1.91
-1.50
-5.64
-10.26
-15.10
-20.04
-25.12
-30.52
-36.55
-43.60
-52.06
-62.14
-73.42
-84.41
-92.49
-94.42
-87.43
-70.43
-44.73
-13.86
17.52
45.09
66.05
79.48
85.95
86.74
83.16
76.33
67.28
57.11
47.02
38.02
30.69
25.04
20.64
16.99
13.83
11.22
9.47
8.76
8.92
9.31
9.00
7.17
3.41
-2.15
-8.91
-16.08
-22.98
-29.29
-35.15
-41.08
-47.93
-56.41
-66.76
-78.15
-88.49
-94.62
-93.24
-82.08
-61.03
-32.45
-0.58
29.83
54.95
72.81
83.26
87.35
86.50
81.90
74.51
65.29
55.42
46.17
38.60
33.14
29.46
26.72
23.97
20.62
16.76
12.97
10.02
8.38
7.83
7.47
6.01
2.27
-4.26
-13.22
-23.48
-33.61
-42.47
-49.64
-55.46
-60.93
-67.25
-75.37
-85.57
-97.06
-107.84
-114.91
-115.01
-105.63
-86.02
-57.80
-24.57
9.03
38.77
61.87
77.39
85.87
88.52
86.63
81.14
72.92
62.88
52.20
42.19
33.91
27.90
24.02
21.62
19.87
18.16
16.34
14.72
13.81
14.02
15.30
17.03
18.15
17.54
14.40
8.64
0.90
-7.64
-15.74
-22.51
-27.75
-31.98
-36.21
-41.61
-49.10
-59.03
-70.87
-83.09
-93.16
-98.00
-94.79
-81.88
-59.54
-30.17
2.30
33.47
59.69
78.81
90.35
95.00
94.05
88.86
80.69
70.74
60.26
50.45
42.21
35.88
31.17
27.36
23.67
19.69
15.59
12.03
9.78
9.24
10.12
11.42
11.77
9.93
5.34
-1.70
-10.15
-18.64
-26.05
-31.92
-36.50
-40.66
-45.52
-52.09
-60.87
-71.49
-82.54
-91.55
-95.47
-91.54
-78.27
-56.18
-27.88
2.66
31.21
54.45
70.60
79.44
81.79
78.91
72.09
62.55
51.48
40.00
29.18
19.73
11.99
5.93
1.33
-2.02
-4.17
-5.08
-4.78
-3.54
-1.92
-0.69
-0.59
-2.10
-5.28
-9.72
-14.81
-19.93
-24.70
-29.20
-33.91
-39.58
-46.88
-55.94
-65.96
-75.05
-80.51
-79.57
-70.41
-52.92
-29.02
-2.19
23.62
45.04
60.15
68.54
70.91
68.43
62.24
53.26
42.29
30.15
17.82
6.31
-3.46
-10.86
-15.70
-18.19
-18.92
-18.63
-18.01
-17.56
-17.48
-17.76
-18.38
-19.34
-20.79
-22.93
-25.96
-30.12
-35.69
-42.96
-52.06
-62.44
-72.63
-80.19
-82.22
-76.38
-61.80
-39.67
-13.00
14.29
38.54
57.28
69.60
75.84
76.91
73.74
67.00
57.22
45.13
31.83
18.77
7.42
-1.14
-6.58
-9.37
-10.53
-11.17
-12.06
-13.44
-15.09
-16.61
-17.74
-18.62
-19.70
-21.67
-25.23
-30.96
-39.24
-50.01
-62.57
-75.31
-85.65
-90.54
-87.26
-74.46
-52.83
-25.13
4.59
32.14
54.36
69.75
78.37
81.17
79.37
73.94
65.53
54.79
42.65
30.37
19.37
10.78
5.07
1.86
0.16
-1.22
-3.14
-5.88
-9.10
-12.19
-14.70
-16.63
-18.47
-21.06
-25.30
-31.91
-41.26
-53.28
-67.25
-81.58
-93.68
-100.39
-98.74
-87.03
-65.64
-37.24
-6.03
23.51
47.87
65.33
75.91
80.70
81.07
78.06
72.26
64.09
54.13
43.30
32.78
23.70
16.82
12.18
9.22
7.01
4.66
1.64
-2.05
-6.02
-9.81
-13.14
-16.07
-19.06
-22.76
-27.87
-35.02
-44.71
-57.12
-71.82
-87.38
-101.19
-109.80
-109.76
-98.84
-77.01
-46.76
-12.43
21.07
49.67
71.04
84.71
91.49
92.78
89.96
84.29
76.89
68.80
60.93
53.83
47.58
42.00
36.83
32.04
27.93
24.87
23.06
22.23
21.62
20.24
17.30
12.45
5.91
-1.69
-9.63
-17.37
-24.77
-32.11
-40.11
-49.65
-61.44
-75.45
-90.38
-103.53
-111.15
-109.64
-96.79
-72.85
-40.69
-5.02
29.07
57.57
78.29
90.94
96.41
96.13
91.49
83.81
74.32
64.27
54.80
46.66
40.11
34.89
30.55
26.73
23.41
20.92
19.57
19.37
19.79
19.84
18.45
14.85
8.96
1.35
-7.02
-15.18
-22.58
-29.16
-35.42
-42.25
-50.71
-61.54
-74.70
-88.85
-101.19
-107.98
-105.57
-91.88
-67.37
-35.17
-0.15
32.61
59.27
77.99
88.79
92.77
91.34
85.75
77.07
66.50
55.46
45.38
37.32
31.65
28.01
25.59
23.63
21.79
20.25
19.44
19.62
20.57
21.53
21.37
19.10
14.21
6.88
-2.08
-11.60
-20.67
-28.72
-35.76
-42.37
-49.55
-58.41
-69.69
-83.14
-97.12
-108.58
-113.71
-109.10
-93.14
-66.74
-33.34
2.13
34.71
60.75
78.53
88.12
90.74
87.96
81.31
72.17
61.79
51.34
41.82
33.90
27.80
23.40
20.36
18.41
17.39
17.28
17.97
19.11
20.00
19.76
17.59
13.11
6.49
-1.60
-10.23
-18.58
-26.23
-33.26
-40.33
-48.45
-58.56
-71.00
-84.88
-97.81
-106.25
-106.45
-95.87
-74.20
-43.84
-9.15
24.86
54.07
76.04
90.21
97.26
98.45
95.02
88.18
79.15
69.19
59.55
51.11
44.21
38.63
33.84
29.40
25.21
21.62
19.07
17.84
17.65
17.68
16.80
14.01
8.82
1.48
-7.21
-16.20
-24.61
-32.04
-38.68
-45.24
-52.82
-62.42
-74.54
-88.54
-102.34
-112.57
-115.41
-107.86
-88.97
-60.43
-26.21
8.63
39.53
63.56
79.83
89.03
92.56
91.80
87.74
81.13
72.75
63.68
55.13
48.14
43.26
40.30
38.53
36.99
34.96
32.29
29.35
26.82
25.24
24.61
24.31
23.23
20.23
14.62
6.44
-3.46
-13.83
-23.43
-31.52
-38.06
-43.62
-49.16
-55.74
-64.22
-74.98
-87.59
-100.51
-111.13
-116.12
-112.41
-98.23
-74.01
-42.48
-7.97
24.87
52.31
72.38
84.86
90.71
91.39
88.26
82.40
74.74
66.17
57.65
50.01
43.83
39.26
36.08
33.87
32.24
30.94
29.89
29.14
28.67
28.36
27.91
26.97
25.15
22.16
17.81
12.07
5.06
-2.90
-11.36
-19.80
-27.73
-34.80
-40.90
-46.15
-50.94
-55.89
-61.73
-69.11
-78.21
-88.33
-97.64
-103.35
-102.46
-92.73
-73.68
-46.99
-16.13
14.63
41.46
61.84
74.90
81.10
81.71
78.16
71.83
63.87
55.26
46.80
39.14
32.67
27.60
23.95
21.60
20.39
20.09
20.40
21.01
21.61
21.90
21.67
20.75
19.02
16.38
12.78
8.20
2.72
-3.50
-10.22
-17.14
-23.97
-30.47
-36.44
-41.88
-46.89
-51.83
-57.23
-63.64
-71.35
-80.02
-88.38
-94.31
-95.26
-89.09
-74.87
-53.41
-27.13
0.55
26.22
47.18
62.04
70.47
72.98
70.47
64.00
54.77
44.07
33.21
23.37
15.38
9.58
5.85
3.74
2.73
2.41
2.58
3.22
4.33
5.78
7.19
7.90
7.24
4.73
0.35
-5.46
-11.90
-18.17
-23.73
-28.52
-32.99
-37.88
-44.00
-51.92
-61.64
-72.29
-82.11
-88.61
-89.17
-81.91
-66.34
-43.84
-17.34
9.49
33.22
51.52
63.44
69.27
69.97
66.67
60.35
51.80
41.73
30.95
20.34
10.81
3.14
-2.20
-5.10
-5.89
-5.16
-3.72
-2.31
-1.48
-1.51
-2.42
-4.12
-6.52
-9.57
-13.29
-17.70
-22.90
-29.06
-36.50
-45.52
-56.05
-67.21
-77.10
-82.99
-82.09
-72.51
-54.23
-29.28
-1.29
25.57
47.83
63.48
72.21
74.91
73.04
67.96
60.65
51.76
41.84
31.52
21.56
12.74
5.65
0.53
-2.74
-4.57
-5.50
-6.06
-6.67
-7.59
-8.95
-10.83
-13.27
-16.37
-20.26
-25.06
-30.92
-38.04
-46.67
-56.96
-68.65
-80.65
-90.88
-96.51
-94.72
-83.77
-63.81
-37.11
-7.42
21.06
44.94
62.28
72.78
77.23
76.92
73.16
67.07
59.54
51.37
43.26
35.72
29.08
23.42
18.68
14.81
11.76
9.53
8.00
6.94
5.92
4.44
2.09
-1.35
-5.81
-11.08
-16.89
-23.06
-29.63
-36.85
-45.18
-55.09
-66.68
-79.30
-91.18
-99.56
-101.40
-94.34
-77.73
-53.03
-23.53
6.63
33.66
54.98
69.55
77.56
79.98
78.07
73.08
66.22
58.58
51.03
44.16
38.23
33.18
28.78
24.81
21.19
18.04
15.66
14.25
13.74
13.62
12.98
10.85
6.61
0.26
-7.52
-15.66
-23.19
-29.67
-35.35
-41.17
-48.33
-57.87
-70.04
-83.82
-96.84
-105.72
-106.96
-98.18
-79.08
-51.78
-20.22
11.02
38.12
58.86
72.74
80.43
83.06
81.67
77.13
70.29
62.18
54.01
46.90
41.51
37.92
35.57
33.64
31.41
28.62
25.55
22.85
21.14
20.69
21.14
21.57
20.82
17.91
12.41
4.63
-4.54
-13.96
-22.65
-30.06
-36.24
-41.73
-47.44
-54.32
-63.14
-74.04
-86.18
-97.58
-105.29
-106.15
-97.80
-79.67
-53.38
-22.47
8.72
36.27
57.69
72.18
80.29
83.17
82.02
77.73
71.03
62.71
53.74
45.22
38.14
33.04
29.92
28.28
27.42
26.71
25.87
25.02
24.43
24.30
24.53
24.57
23.59
20.79
15.70
8.47
-0.21
-9.27
-17.76
-25.05
-31.14
-36.50
-41.87
-48.06
-55.69
-65.05
-75.86
-87.05
-96.64
-102.05
-100.64
-90.66
-72.01
-46.51
-17.47
11.20
36.10
55.08
67.40
73.38
73.93
70.11
63.07
54.01
44.18
34.86
27.00
21.09
17.11
14.65
13.18
12.34
12.00
12.23
13.01
14.10
14.92
14.71
12.78
8.81
3.00
-3.97
-11.20
-17.95
-23.91
-29.33
-34.96
-41.77
-50.53
-61.37
-73.43
-84.66
-92.22
-93.09
-85.07
-67.72
-42.69
-13.34
16.17
42.10
62.01
75.04
81.58
82.70
79.56
73.26
64.82
55.39
46.13
38.06
31.78
27.29
24.11
21.56
19.19
16.97
15.24
14.45
14.72
15.65
16.29
15.52
12.43
6.78
-0.94
-9.69
-18.29
-25.86
-32.13
-37.52
-43.00
-49.82
-58.95
-70.63
-83.97
-96.68
-105.51
-107.02
-98.81
-80.42
-53.77
-22.63
8.50
35.75
56.77
70.89
78.75
81.52
80.39
76.31
70.11
62.69
55.05
48.19
42.76
38.95
36.35
34.20
31.76
28.71
25.26
22.05
19.82
18.93
19.07
19.28
18.30
15.06
9.11
0.84
-8.72
-18.27
-26.77
-33.75
-39.48
-44.78
-50.77
-58.49
-68.52
-80.61
-93.37
-104.33
-110.32
-108.36
-96.62
-75.27
-46.68
-14.82
15.89
41.78
60.82
72.77
78.68
80.14
78.60
75.06
70.16
64.35
58.15
52.11
46.79
42.53
39.40
37.18
35.46
33.87
32.18
30.35
28.53
26.90
25.51
24.20
22.51
19.87
15.73
9.81
2.29
-6.26
-15.02
-23.19
-30.31
-36.33
-41.62
-46.78
-52.53
-59.51
-68.18
-78.51
-89.65
-99.72
-105.96
-105.40
-95.87
-77.03
-50.71
-20.56
9.14
34.74
54.13
66.88
73.76
75.96
74.54
70.26
63.77
55.80
47.33
39.43
33.01
28.55
26.03
25.00
24.78
24.78
24.61
24.17
23.59
23.01
22.43
21.63
20.20
17.68
13.73
8.27
1.55
-5.89
-13.37
-20.28
-26.26
-31.32
-35.83
-40.38
-45.67
-52.33
-60.66
-70.45
-80.70
-89.49
-94.27
-92.48
-82.44
-64.13
-39.46
-11.78
15.09
38.03
55.25
66.51
72.50
74.26
72.61
68.13
61.33
53.01
44.31
36.48
30.56
26.98
25.47
25.19
25.16
24.67
23.52
21.93
20.38
19.23
18.51
17.81
16.42
13.60
8.86
2.20
-5.90
-14.64
-23.17
-30.92
-37.74
-43.90
-49.96
-56.56
-64.32
-73.56
-84.13
-95.00
-104.16
-108.84
-106.26
-94.69
-74.25
-47.28
-17.61
10.62
34.21
51.62
62.89
69.01
71.12
70.11
66.55
61.05
54.47
47.84
42.16
38.02
35.47
34.02
32.98
31.79
30.18
28.29
26.54
25.34
24.83
24.74
24.40
22.93
19.60
14.14
6.83
-1.56
-10.07
-17.89
-24.66
-30.43
-35.69
-41.10
-47.39
-55.23
-64.89
-76.02
-87.24
-96.15
-99.81
-95.59
-82.24
-60.53
-33.19
-4.10
22.91
45.04
61.07
71.13
76.07
76.91
74.53
69.63
62.97
55.45
48.06
41.68
36.83
33.59
31.60
30.30
29.14
27.84
26.41
25.09
24.15
23.65
23.35
22.68
20.94
17.56
12.31
5.42
-2.45
-10.48
-17.90
-24.31
-29.73
-34.63
-39.69
-45.65
-53.04
-61.96
-71.81
-81.18
-87.93
-89.61
-84.20
-70.89
-50.50
-25.44
0.96
25.44
45.56
60.11
68.93
72.48
71.45
66.59
58.77
49.12
39.01
29.83
22.65
17.93
15.43
14.41
13.99
13.52
12.76
11.93
11.39
11.36
11.65
11.68
10.63
7.80
2.88
-3.87
-11.70
-19.64
-26.85
-32.86
-37.77
-42.11
-46.72
-52.52
-60.20
-69.86
-80.74
-91.02
-98.13
-99.29
-92.47
-77.14
-54.68
-28.03
-0.79
23.81
43.68
58.06
67.20
71.75
72.36
69.58
64.02
56.57
48.41
40.79
34.57
30.03
26.80
24.20
21.70
19.24
17.25
16.30
16.67
18.06
19.61
20.17
18.73
14.86
8.77
1.20
-6.82
-14.39
-20.98
-26.55
-31.52
-36.70
-42.99
-51.11
-61.18
-72.35
-82.67
-89.39
-89.61
-81.34
-64.35
-40.45
-13.05
13.87
37.03
54.51
65.89
71.78
73.17
70.95
65.87
58.71
50.42
42.16
34.94
29.39
25.54
22.94
20.91
18.90
16.74
14.64
13.02
12.22
12.22
12.52
12.27
10.51
6.61
0.51
-7.23
-15.61
-23.59
-30.45
-36.08
-40.99
-46.11
-52.45
-60.77
-71.14
-82.68
-93.41
-100.57
-101.23
-93.29
-76.29
-51.82
-23.18
5.60
30.92
50.49
63.55
70.61
72.77
71.21
66.91
60.72
53.53
46.25
39.79
34.69
31.07
28.57
26.53
24.37
21.87
19.23
16.98
15.62
15.27
15.45
15.24
13.53
9.61
3.43
-4.37
-12.71
-20.54
-27.26
-32.91
-38.09
-43.64
-50.49
-59.26
-70.18
-82.64
-95.06
-104.88
-109.04
-104.91
-91.30
-69.13
-41.29
-11.81
15.40
37.59
53.58
63.58
68.47
69.28
66.84
61.91
55.31
48.04
41.12
35.31
30.97
27.92
25.70
23.77
21.90
20.26
19.25
19.23
20.12
21.28
21.67
20.24
16.40
10.33
2.83
-4.95
-12.09
-18.23
-23.67
-29.19
-35.78
-44.22
-54.74
-66.75
-78.63
-87.90
-91.75
-87.84
-75.23
-54.84
-29.33
-2.30
22.70
43.10
57.70
66.49
70.17
69.69
65.97
59.89
52.32
44.16
36.22
29.10
23.13
18.41
14.91
12.60
11.50
11.60
12.76
14.59
16.46
17.50
16.93
14.23
9.35
2.75
-4.78
-12.38
-19.45
-25.85
-31.99
-38.64
-46.70
-56.72
-68.43
-80.38
-90.01
-94.27
-90.47
-77.42
-55.98
-28.99
-0.40
25.86
46.97
61.67
70.09
73.16
72.10
67.97
61.73
54.24
46.38
38.86
32.17
26.48
21.71
17.69
14.38
11.92
10.49
10.13
10.57
11.13
10.90
9.08
5.28
-0.30
-6.98
-13.90
-20.44
-26.43
-32.23
-38.58
-46.24
-55.75
-67.05
-79.23
-90.32
-97.59
-98.15
-89.92
-72.53
-47.66
-18.74
10.15
35.45
55.01
68.25
75.74
78.53
77.67
74.01
68.35
61.53
54.46
47.87
42.15
37.32
33.16
29.47
26.21
23.61
21.92
21.16
21.01
20.73
19.45
16.44
11.42
4.71
-2.95
-10.59
-17.46
-23.26
-28.33
-33.54
-40.04
-48.78
-59.97
-72.63
-84.47
-92.30
-92.91
-84.19
-66.03
-40.52
-11.41
17.06
41.39
59.56
71.20
77.01
78.19
75.90
71.05
64.46
56.92
49.23
42.05
35.76
30.35
25.65
21.49
17.95
15.36
14.12
14.43
15.98
17.96
19.24
18.75
15.86
10.59
3.59
-4.15
-11.65
-18.31
-24.05
-29.36
-35.15
-42.40
-51.77
-63.09
-75.03
-85.12
-90.27
-87.68
-75.92
-55.57
-29.23
-0.79
25.77
47.42
62.68
71.54
74.90
73.95
69.73
63.10
54.82
45.74
36.77
28.74
22.26
17.54
14.44
12.67
11.85
11.73
12.05
12.54
12.74
12.09
10.08
6.41
1.21
-5.02
-11.49
-17.49
-22.63
-27.09
-31.58
-37.18
-44.86
-54.97
-66.73
-78.05
-85.91
-87.17
-79.69
-63.25
-39.71
-12.60
14.08
36.92
53.95
64.69
69.77
70.34
67.58
62.48
55.86
48.44
40.83
33.49
26.72
20.68
15.50
11.32
8.36
6.73
6.32
6.72
7.21
7.00
5.45
2.27
-2.41
-8.20
-14.62
-21.27
-28.01
-34.98
-42.60
-51.48
-62.09
-74.28
-86.82
-97.32
-102.63
-99.83
-87.39
-65.92
-38.22
-8.45
19.21
41.63
57.37
66.55
70.25
69.85
66.63
61.55
55.43
48.94
42.67
37.06
32.33
28.51
25.48
23.05
21.09
19.50
18.19
16.98
15.53
13.40
10.20
5.70
0.01
-6.47
-13.22
-19.78
-26.04
-32.33
-39.41
-48.21
-59.29
-72.31
-85.66
-96.51
-101.48
-97.76
-84.17
-61.78
-33.68
-4.05
23.12
45.04
60.51
69.71
73.63
73.47
70.33
65.17
58.87
52.22
45.86
40.12
34.99
30.26
25.68
21.23
17.20
14.09
12.30
11.87
12.27
12.55
11.66
8.85
3.97
-2.50
-9.71
-16.83
-23.32
-29.19
-34.93
-41.38
-49.41
-59.52
-71.35
-83.38
-93.01
-97.08
-92.90
-79.28
-57.20
-29.66
-0.75
25.52
46.34
60.56
68.45
71.07
69.63
65.21
58.71
51.00
43.06
35.74
29.63
24.91
21.39
18.69
16.57
15.03
14.19
14.13
14.64
15.14
14.86
13.09
9.53
4.33
-1.90
-8.36
-14.44
-19.83
-24.78
-29.95
-36.28
-44.64
-55.26
-67.32
-78.79
-86.64
-87.78
-80.10
-63.35
-39.40
-11.69
15.79
39.70
58.01
70.09
76.31
77.57
74.88
69.32
62.06
54.31
47.15
41.23
36.72
33.28
30.42
27.73
25.17
22.96
21.44
20.72
20.47
19.99
18.35
14.80
9.13
1.72
-6.53
-14.58
-21.68
-27.61
-32.91
-38.56
-45.76
-55.27
-66.99
-79.53
-90.25
-95.85
-93.35
-81.18
-59.93
-32.32
-2.37
25.80
49.09
65.98
76.43
81.26
81.57
78.42
72.73
65.47
57.66
50.21
43.72
38.32
33.73
29.47
25.23
21.01
17.14
14.08
12.10
11.00
10.13
8.61
5.63
0.79
-5.74
-13.33
-21.16
-28.57
-35.30
-41.60
-48.15
-55.78
-65.16
-76.27
-88.04
-98.25
-103.99
-102.40
-91.83
-72.51
-46.69
-18.03
9.47
32.66
49.82
60.71
66.10
67.07
64.68
59.84
53.39
46.20
39.16
32.98
27.99
24.20
21.36
19.26
17.86
17.22
17.46
18.39
19.49
19.95
18.98
16.12
11.41
5.34
-1.38
-8.09
-14.53
-20.80
-27.33
-34.74
-43.55
-53.91
-65.24
-76.05
-84.02
-86.45
-81.16
-67.31
-45.93
-19.82
7.31
31.85
51.23
64.31
71.20
72.74
70.09
64.33
56.55
47.83
39.15
31.29
24.64
19.19
14.65
10.71
7.29
4.63
3.07
2.75
3.45
4.42
4.70
3.41
0.13
-4.95
-11.19
-17.74
-24.01
-29.78
-35.33
-41.27
-48.31
-56.95
-67.12
-77.88
-87.27
-92.62
-91.23
-81.34
-62.92
-37.92
-9.80
17.52
40.72
57.85
68.43
73.11
73.01
69.35
63.22
55.64
47.59
39.89
33.15
27.61
23.19
19.63
16.71
14.36
12.68
11.80
11.71
12.15
12.55
12.15
10.27
6.52
1.00
-5.71
-12.78
-19.41
-25.25
-30.47
-35.81
-42.23
-50.52
-60.77
-72.08
-82.41
-89.00
-89.11
-80.88
-64.11
-40.50
-13.22
13.98
37.75
55.90
67.62
73.25
73.76
70.33
64.09
56.10
47.41
39.00
31.72
26.02
21.90
18.93
16.52
14.23
11.97
10.06
8.91
8.68
9.10
9.41
8.64
6.14
1.76
-4.06
-10.52
-16.83
-22.56
-27.75
-32.84
-38.56
-45.66
-54.62
-65.27
-76.49
-86.07
-91.16
-89.02
-78.06
-58.61
-33.06
-5.13
21.20
42.83
58.16
67.05
70.28
68.98
64.21
56.94
48.06
38.52
29.21
20.82
13.78
8.23
4.13
1.41
-0.02
-0.29
0.28
1.17
1.74
1.45
-0.01
-2.63
-6.13
-10.13
-14.27
-18.41
-22.59
-27.13
-32.58
-39.52
-48.33
-58.64
-69.06
-77.15
-80.08
-75.43
-62.31
-41.73
-16.53
9.50
32.75
50.64
62.08
67.29
67.33
63.47
56.87
48.42
38.83
28.81
19.09
10.47
3.57
-1.23
-3.97
-5.03
-5.00
-4.47
-3.97
-3.87
-4.42
-5.79
-8.07
-11.28
-15.36
-20.16
-25.56
-31.56
-38.34
-46.24
-55.63
-66.48
-77.94
-88.13
-94.29
-93.55
-83.90
-65.14
-39.20
-9.70
19.14
43.72
61.92
73.24
78.47
78.89
75.72
69.85
61.91
52.53
42.45
32.54
23.69
16.60
11.56
8.48
6.85
5.97
5.17
3.91
1.97
-0.67
-3.88
-7.52
-11.57
-16.09
-21.21
-27.09
-33.98
-42.19
-52.09
-63.74
-76.45
-88.45
-96.95
-98.76
-91.40
-74.14
-48.50
-18.00
12.93
40.20
61.07
74.54
81.04
81.82
78.34
71.93
63.78
54.91
46.22
38.37
31.71
26.19
21.61
17.68
14.35
11.75
10.05
9.21
8.83
8.17
6.39
2.90
-2.35
-8.93
-16.14
-23.36
-30.32
-37.18
-44.49
-52.98
-63.32
-75.66
-89.23
-102.07
-111.11
-112.96
-104.99
-86.49
-59.20
-26.89
5.81
34.81
57.56
73.25
82.41
86.13
85.58
81.77
75.70
68.42
61.00
54.21
48.37
43.34
38.65
33.95
29.23
24.90
21.58
19.68
19.11
19.16
18.66
16.47
11.98
5.29
-2.82
-11.27
-19.23
-26.38
-33.07
-40.16
-48.69
-59.54
-72.93
-88.04
-102.74
-113.85
-117.83
-111.85
-94.98
-68.65
-36.41
-2.86
27.68
52.34
69.98
80.94
86.29
87.19
84.62
79.44
72.61
65.30
58.59
53.22
49.29
46.31
43.52
40.34
36.71
33.10
30.21
28.55
28.09
28.14
27.60
25.36
20.72
13.65
4.78
-4.82
-14.06
-22.17
-29.01
-35.06
-41.29
-48.87
-58.71
-71.07
-85.13
-98.85
-109.14
-112.57
-106.49
-90.00
-64.46
-33.29
-0.84
28.77
52.75
69.88
80.29
84.79
84.34
79.85
72.28
62.81
52.89
43.89
36.82
32.03
29.11
27.25
25.60
23.74
21.81
20.39
20.02
20.80
22.13
22.83
21.65
17.75
11.16
2.73
-6.23
-14.51
-21.47
-27.28
-32.71
-38.85
-46.72
-56.91
-69.25
-82.60
-94.79
-102.88
-103.88
-95.65
-77.80
-52.06
-21.92
8.33
34.81
55.00
68.00
74.28
75.02
71.56
65.12
56.75
47.42
38.06
29.48
22.24
16.60
12.52
9.84
8.33
7.87
8.31
9.40
10.69
11.51
11.17
9.09
5.09
-0.53
-7.15
-13.99
-20.49
-26.49
-32.45
-39.26
-47.92
-58.98
-71.94
-84.94
-94.92
-98.41
-92.66
-76.78
-52.15
-22.15
8.88
36.95
59.35
75.01
84.10
87.49
86.17
81.11
73.29
63.90
54.23
45.45
38.24
32.65
28.24
24.40
20.84
17.74
15.59
14.83
15.43
16.70
17.46
16.48
12.99
7.01
-0.76
-9.19
-17.26
-24.40
-30.62
-36.51
-42.95
-50.90
-61.06
-73.47
-87.12
-99.74
-108.10
-108.80
-99.44
-79.62
-51.37
-18.57
14.18
42.89
65.13
80.11
88.28
90.68
88.48
82.88
75.14
66.60
58.50
51.70
46.42
42.33
38.76
35.13
31.23
27.40
24.22
22.20
21.37
21.19
20.61
18.53
14.18
7.46
-1.02
-10.23
-19.13
-27.09
-34.09
-40.78
-48.18
-57.37
-68.96
-82.50
-96.27
-107.32
-112.19
-108.01
-93.57
-69.94
-40.22
-8.68
20.64
44.84
62.66
74.15
80.10
81.50
79.25
74.29
67.61
60.37
53.57
47.84
43.28
39.54
36.03
32.38
28.58
25.04
22.32
20.84
20.50
20.67
20.35
18.48
14.38
7.98
-0.15
-9.02
-17.56
-25.03
-31.24
-36.61
-42.08
-48.81
-57.75
-69.14
-82.15
-94.64
-103.52
-105.55
-98.35
-81.37
-56.27
-26.46
3.91
31.08
52.61
67.62
76.41
79.92
79.22
75.29
69.06
61.50
53.65
46.41
40.28
35.31
31.17
27.42
23.85
20.63
18.19
16.98
17.06
17.90
18.49
17.68
14.65
9.25
2.05
-5.90
-13.53
-20.16
-25.69
-30.61
-35.81
-42.36
-51.01
-61.81
-73.72
-84.47
-91.03
-90.39
-80.71
-62.06
-36.69
-8.31
19.00
41.94
58.67
68.88
73.26
72.91
68.94
62.26
53.78
44.43
35.15
26.74
19.73
14.30
10.36
7.72
6.17
5.56
5.67
6.18
6.59
6.32
4.88
2.04
-2.11
-7.18
-12.71
-18.31
-23.91
-29.76
-36.47
-44.69
-54.76
-66.22
-77.48
-85.95
-88.67
-83.24
-68.82
-46.68
-19.89
7.53
31.84
50.53
62.70
68.78
69.91
67.34
62.07
54.85
46.30
37.11
27.98
19.63
12.72
7.60
4.36
2.78
2.36
2.48
2.52
1.98
0.61
-1.66
-4.77
-8.56
-12.86
-17.63
-22.85
-28.70
-35.50
-43.70
-53.63
-65.17
-77.33
-88.03
-94.43
-93.65
-83.85
-65.06
-39.41
-10.60
17.25
40.74
57.99
68.64
73.44
73.58
70.27
64.52
57.18
49.04
40.83
33.12
26.33
20.73
16.46
13.54
11.82
10.99
10.53
9.84
8.45
6.09
2.77
-1.32
-5.90
-10.80
-15.96
-21.52
-27.80
-35.30
-44.56
-55.90
-68.94
-82.26
-93.28
-98.85
-96.13
-83.72
-62.29
-34.54
-4.49
23.76
47.07
63.78
73.73
77.71
76.99
72.88
66.59
59.23
51.76
44.84
38.82
33.70
29.23
25.16
21.43
18.17
15.70
14.19
13.48
13.04
12.10
9.92
6.09
0.64
-5.97
-13.11
-20.23
-27.10
-33.85
-41.03
-49.40
-59.63
-71.83
-85.06
-97.11
-104.77
-104.76
-94.82
-74.81
-46.98
-15.39
15.27
41.13
60.00
71.57
76.88
77.54
75.00
70.26
63.95
56.52
48.48
40.46
33.13
27.03
22.46
19.32
17.26
15.76
14.29
12.46
10.06
7.07
3.56
-0.37
-4.69
-9.39
-14.53
-20.24
-26.79
-34.58
-44.06
-55.37
-67.81
-79.61
-87.97
-89.77
-82.72
-66.30
-42.26
-14.16
13.79
37.97
56.26
68.20
74.46
76.13
74.18
69.28
62.00
53.05
43.39
34.13
26.26
20.33
16.35
13.77
11.78
9.58
6.71
3.20
-0.60
-4.19
-7.29
-9.98
-12.74
-16.20
-21.03
-27.74
-36.61
-47.55
-59.93
-72.39
-82.75
-88.36
-86.78
-76.64
-58.27
-33.81
-6.67
19.46
41.58
58.04
68.46
73.37
73.63
70.01
63.20
53.97
43.39
32.74
23.37
16.22
11.52
8.77
6.95
5.06
2.48
-0.78
-4.22
-7.17
-9.29
-10.68
-12.03
-14.32
-18.53
-25.39
-35.12
-47.24
-60.44
-72.51
-80.68
-82.26
-75.50
-60.28
-38.30
-12.67
13.05
35.82
53.72
66.06
72.96
74.86
72.28
65.81
56.31
45.02
33.40
22.86
14.35
8.15
3.84
0.61
-2.34
-5.54
-9.02
-12.45
-15.39
-17.53
-18.95
-20.19
-22.14
-25.86
-32.28
-41.84
-54.03
-67.29
-78.99
-86.05
-85.74
-76.66
-59.22
-35.60
-9.12
16.76
39.29
56.82
68.75
75.19
76.55
73.39
66.50
56.99
46.29
35.88
27.00
20.31
15.74
12.60
9.99
7.19
3.93
0.42
-2.83
-5.37
-7.15
-8.60
-10.58
-14.11
-20.14
-29.14
-40.84
-53.93
-66.12
-74.44
-75.99
-68.80
-52.62
-29.12
-1.47
26.58
51.72
71.74
85.67
93.42
95.36
92.02
84.13
72.78
59.49
46.05
34.00
24.22
16.72
10.81
5.58
0.42
-4.74
-9.46
-13.18
-15.61
-16.98
-18.04
-19.89
-23.67
-30.26
-39.93
-52.06
-64.96
-75.99
-82.11
-80.72
-70.60
-52.33
-28.28
-1.85
23.46
44.91
60.91
70.88
74.98
73.68
67.70
58.05
46.10
33.44
21.63
11.85
4.55
-0.55
-4.19
-7.20
-10.08
-12.88
-15.27
-16.82
-17.44
-17.50
-17.89
-19.84
-24.44
-32.36
-43.33
-55.96
-67.73
-75.56
-76.61
-69.16
-53.28
-30.89
-5.18
20.31
42.60
59.76
70.98
76.17
75.66
70.03
60.21
47.55
33.80
20.81
10.07
2.29
-2.73
-5.83
-8.05
-10.11
-12.20
-14.02
-15.14
-15.44
-15.23
-15.34
-16.86
-20.88
-28.10
-38.57
-51.37
-64.49
-75.06
-80.00
-76.91
-64.89
-45.03
-20.07
6.41
30.99
51.22
65.78
74.27
76.79
73.67
65.54
53.46
39.05
24.28
11.05
0.69
-6.38
-10.61
-13.05
-14.75
-16.40
-18.10
-19.55
-20.40
-20.63
-20.68
-21.47
-24.11
-29.63
-38.57
-50.68
-64.66
-78.11
-87.87
-90.79
-84.72
-69.26
-46.06
-18.40
9.90
35.43
55.99
70.69
79.52
82.85
81.09
74.68
64.37
51.44
37.63
24.81
14.47
7.23
2.76
0.04
-2.12
-4.54
-7.44
-10.49
-13.16
-15.12
-16.52
-18.08
-20.91
-26.23
-34.97
-47.28
-62.13
-77.10
-88.77
-93.50
-88.58
-73.21
-48.91
-19.14
11.82
40.03
62.82
79.05
88.72
92.48
91.03
85.11
75.54
63.51
50.54
38.29
28.17
20.95
16.55
14.11
12.41
10.33
7.35
3.58
-0.34
-3.72
-6.26
-8.26
-10.61
-14.39
-20.61
-29.89
-42.23
-56.89
-72.14
-85.34
-93.26
-92.84
-82.16
-61.32
-32.60
0.06
32.18
59.95
81.02
94.60
101.10
101.48
96.93
88.73
78.30
67.15
56.67
47.78
40.79
35.40
31.03
27.25
24.00
21.52
20.14
19.83
20.08
19.88
18.16
14.14
7.67
-0.70
-9.97
-19.13
-27.48
-34.97
-42.20
-50.20
-60.09
-72.48
-86.91
-101.49
-113.05
-117.82
-112.65
-96.12
-69.33
-35.70
-0.01
33.00
59.89
79.10
90.75
96.02
96.39
93.18
87.47
80.19
72.25
64.47
57.52
51.79
47.36
44.04
41.66
40.10
39.40
39.67
40.80
42.37
43.57
43.48
41.31
36.78
30.29
22.67
14.90
7.67
1.09
-5.25
-11.97
-19.51
-27.88
-36.63
-45.02
-52.37
-58.38
-63.20
-67.44
-72.08
-78.19
-86.47
-96.74
-107.58
-116.24
-119.28
-113.58
-97.59
-72.03
-39.95
-5.81
25.89
51.80
70.34
81.62
86.74
87.12
83.99
78.33
71.03
63.10
55.57
49.35
44.97
42.44
41.28
40.83
40.57
40.29
40.06
40.18
40.78
41.75
42.63
42.77
41.51
38.42
33.40
26.77
19.15
11.31
3.95
-2.54
-8.16
-13.23
-18.21
-23.52
-29.32
-35.45
-41.53
-47.05
-51.64
-55.16
-57.82
-60.17
-62.95
-67.01
-73.02
-81.17
-90.75
-100.00
-106.22
-106.42
-98.25
-80.91
-55.66
-25.56
5.37
33.25
55.35
70.40
78.47
80.49
77.74
71.54
63.18
53.91
44.92
37.22
31.46
27.79
25.93
25.28
25.26
25.48
25.83
26.46
27.51
28.91
30.24
30.78
29.79
26.77
21.80
15.48
8.75
2.47
-2.92
-7.56
-12.08
-17.18
-23.27
-30.19
-37.28
-43.67
-48.67
-52.11
-54.35
-56.23
-58.78
-62.90
-69.04
-76.81
-84.85
-90.89
-92.26
-86.70
-73.13
-52.19
-26.15
1.59
27.56
48.97
64.27
73.14
76.20
74.52
69.33
61.79
53.03
44.05
35.74
28.74
23.39
19.64
17.22
15.77
15.02
14.92
15.51
16.76
18.47
20.12
21.08
20.77
18.94
15.71
11.56
7.01
2.43
-2.13
-6.90
-12.22
-18.26
-24.91
-31.74
-38.14
-43.58
-47.85
-51.14
-54.08
-57.55
-62.45
-69.27
-77.70
-86.39
-93.05
-94.92
-89.60
-76.02
-54.84
-28.46
-0.32
26.07
47.95
63.80
73.29
76.97
75.84
71.02
63.68
54.86
45.58
36.70
28.88
22.55
17.91
14.95
13.55
13.47
14.43
16.09
18.07
19.93
21.24
21.65
20.92
19.00
15.99
12.13
7.64
2.64
-2.89
-9.03
-15.79
-23.02
-30.32
-37.20
-43.20
-48.13
-52.20
-56.04
-60.54
-66.50
-74.19
-83.03
-91.33
-96.59
-96.13
-87.96
-71.58
-48.27
-20.86
7.13
32.37
52.54
66.59
74.58
77.24
75.50
70.31
62.48
52.90
42.54
32.45
23.58
16.60
11.74
8.83
7.42
7.03
7.32
8.15
9.51
11.29
13.27
14.93
15.61
14.66
11.62
6.43
-0.51
-8.37
-16.21
-23.23
-29.12
-34.10
-38.82
-44.17
-50.92
-59.44
-69.45
-79.87
-88.79
-93.77
-92.44
-83.25
-66.10
-42.60
-15.69
11.15
34.79
53.13
65.27
71.34
72.03
68.33
61.25
51.92
41.44
30.85
21.01
12.45
5.37
-0.24
-4.46
-7.31
-8.69
-8.52
-6.92
-4.37
-1.70
0.10
0.14
-1.99
-6.17
-11.74
-17.79
-23.53
-28.58
-33.16
-38.00
-44.13
-52.37
-62.87
-74.69
-85.67
-92.91
-93.48
-85.51
-68.85
-45.32
-18.18
8.73
32.16
50.09
61.82
67.76
68.74
65.70
59.39
50.52
39.85
28.29
16.87
6.54
-1.94
-8.15
-11.98
-13.61
-13.51
-12.35
-10.87
-9.77
-9.52
-10.28
-11.98
-14.40
-17.35
-20.87
-25.20
-30.84
-38.37
-48.17
-60.06
-72.92
-84.60
-92.19
-92.80
-84.59
-67.52
-43.54
-16.11
10.89
34.24
52.05
63.80
69.94
71.23
68.38
61.97
52.67
41.45
29.65
18.71
9.84
3.67
0.10
-1.58
-2.34
-3.05
-4.24
-6.01
-8.17
-10.51
-12.90
-15.47
-18.59
-22.77
-28.59
-36.65
-47.32
-60.51
-75.22
-89.31
-99.76
-103.25
-97.34
-81.40
-57.02
-27.61
2.66
30.06
52.20
68.20
78.31
83.26
83.76
80.36
73.63
64.41
53.86
43.35
34.09
26.83
21.64
18.05
15.26
12.56
9.57
6.33
3.14
0.33
-2.00
-4.08
-6.40
-9.57
-14.24
-21.03
-30.45
-42.65
-57.03
-71.88
-84.34
-90.91
-88.56
-75.77
-53.30
-24.07
7.72
37.81
62.99
81.56
93.27
98.81
99.28
95.82
89.55
81.48
72.57
63.59
55.12
47.54
41.07
35.85
31.89
29.07
27.07
25.37
23.40
20.67
16.92
12.20
6.76
0.92
-5.20
-11.69
-18.92
-27.43
-37.82
-50.51
-65.38
-81.32
-96.04
-106.24
-108.40
-99.99
-80.52
-52.02
-18.55
15.05
44.59
67.55
83.31
92.63
96.85
97.19
94.52
89.51
82.90
75.65
68.74
62.93
58.51
55.18
52.34
49.39
46.05
42.55
39.37
37.07
35.84
35.30
34.58
32.52
28.13
20.98
11.40
0.40
-10.72
-20.83
-29.42
-36.73
-43.58
-51.09
-60.27
-71.73
-85.35
-100.00
-113.41
-122.47
-123.87
-115.15
-95.70
-67.22
-33.38
1.24
32.46
57.54
75.47
86.67
92.33
93.70
91.96
88.10
83.04
77.69
72.78
68.75
65.69
63.31
61.28
59.35
57.55
56.11
55.30
55.14
55.31
55.17
53.99
51.20
46.65
40.63
33.73
26.58
19.58
12.79
5.91
-1.50
-9.71
-18.68
-27.96
-36.86
-44.68
-50.99
-55.88
-60.00
-64.42
-70.36
-78.68
-89.27
-100.67
-110.06
-113.97
-109.33
-94.70
-70.93
-40.98
-9.05
20.80
45.61
64.00
75.98
82.34
84.10
82.25
77.76
71.64
65.01
58.88
53.98
50.49
48.19
46.62
45.40
44.44
43.92
44.07
44.91
46.05
46.81
46.43
44.37
40.60
35.46
29.56
23.52
17.68
12.11
6.54
0.61
-6.00
-13.35
-21.17
-28.93
-36.02
-42.02
-46.86
-50.90
-54.93
-59.86
-66.46
-74.84
-84.17
-92.49
-97.10
-95.22
-85.05
-66.46
-41.33
-13.02
14.56
38.11
55.64
66.67
71.80
72.16
68.87
62.92
55.19
46.59
38.05
30.46
24.49
20.46
18.36
17.90
18.66
20.20
22.08
23.94
25.38
26.07
25.73
24.25
21.66
18.17
14.03
9.42
4.37
-1.19
-7.34
-14.00
-20.92
-27.68
-33.86
-39.22
-43.79
-47.90
-52.11
-57.07
-63.26
-70.65
-78.39
-84.73
-87.32
-83.90
-73.15
-55.33
-32.37
-7.33
16.53
36.57
51.34
60.49
64.46
63.97
59.85
52.92
44.09
34.42
25.04
16.98
10.93
7.15
5.42
5.17
5.75
6.60
7.42
8.16
8.92
9.77
10.54
10.81
9.97
7.39
2.77
-3.70
-11.35
-19.20
-26.33
-32.23
-36.92
-40.98
-45.28
-50.72
-57.88
-66.72
-76.39
-85.16
-90.68
-90.51
-82.89
-67.45
-45.44
-19.57
6.80
30.52
49.38
62.32
69.30
70.91
68.02
61.72
53.15
43.56
34.12
25.78
19.05
14.04
10.51
8.12
6.58
5.71
5.54
6.07
7.21
8.62
9.69
9.65
7.79
3.76
-2.26
-9.62
-17.35
-24.56
-30.79
-36.13
-41.23
-47.02
-54.42
-63.92
-75.21
-86.89
-96.61
-101.44
-98.77
-87.19
-67.13
-40.91
-12.07
15.63
39.15
56.76
68.00
73.35
73.73
70.19
63.81
55.69
46.95
38.62
31.47
25.87
21.73
18.67
16.18
13.89
11.81
10.20
9.45
9.68
10.55
11.22
10.65
7.98
2.90
-4.15
-12.25
-20.29
-27.45
-33.47
-38.73
-44.06
-50.50
-58.96
-69.78
-82.31
-94.76
-104.28
-107.68
-102.38
-87.43
-63.98
-35.08
-4.77
23.08
45.74
61.99
71.87
76.20
76.02
72.36
66.19
58.56
50.55
43.15
37.04
32.42
29.08
26.43
23.90
21.14
18.23
15.57
13.71
12.95
13.08
13.29
12.46
9.57
4.15
-3.51
-12.43
-21.37
-29.34
-35.94
-41.46
-46.77
-52.94
-60.96
-71.30
-83.59
-96.31
-106.91
-112.21
-109.37
-96.83
-75.10
-46.77
-15.78
13.72
38.53
56.97
68.88
75.06
76.65
74.74
70.22
63.90
56.66
49.41
42.96
37.87
34.24
31.81
30.04
28.40
26.55
24.48
22.45
20.82
19.79
19.19
18.44
16.70
13.17
7.40
-0.48
-9.76
-19.35
-28.17
-35.54
-41.40
-46.27
-51.12
-57.05
-64.98
-75.29
-87.48
-99.91
-109.89
-114.24
-110.19
-96.38
-73.53
-44.37
-12.88
16.91
41.93
60.67
72.99
79.59
81.42
79.34
74.15
66.73
58.16
49.64
42.28
36.77
33.27
31.39
30.44
29.75
28.92
27.97
27.19
26.91
27.27
27.99
28.40
27.59
24.77
19.55
12.13
3.24
-6.11
-15.01
-22.93
-29.90
-36.35
-42.94
-50.37
-59.18
-69.64
-81.41
-93.36
-103.38
-108.71
-106.64
-95.48
-75.30
-48.21
-17.75
12.12
38.13
58.31
72.04
79.62
81.77
79.28
73.03
64.13
53.91
43.83
35.10
28.43
23.87
20.96
19.12
17.89
17.16
17.10
17.92
19.57
21.58
23.09
23.10
20.83
16.00
8.98
0.64
-7.89
-15.72
-22.41
-28.17
-33.76
-40.22
-48.49
-59.02
-71.35
-83.97
-94.37
-99.61
-97.06
-85.34
-64.93
-38.11
-8.46
20.19
44.68
63.06
74.73
80.05
79.90
75.41
67.73
58.05
47.52
37.20
27.88
20.07
13.97
9.53
6.68
5.35
5.45
6.79
8.91
11.08
12.38
12.00
9.48
4.91
-1.13
-7.85
-14.57
-21.00
-27.34
-34.19
-42.35
-52.45
-64.58
-77.86
-90.30
-98.97
-100.73
-93.24
-75.90
-50.32
-19.95
10.88
38.19
59.30
73.22
80.32
81.80
79.00
73.08
64.99
55.50
45.38
35.44
26.41
18.93
13.38
9.85
8.13
7.77
8.10
8.46
8.26
7.14
5.02
2.02
-1.65
-5.86
-10.62
-16.07
-22.50
-30.25
-39.73
-51.15
-64.21
-77.67
-89.23
-95.82
-94.47
-83.39
-62.79
-35.08
-4.16
25.65
50.83
69.37
80.85
86.05
86.29
82.95
77.17
69.87
61.75
53.41
45.34
37.93
31.53
26.35
22.46
19.77
17.97
16.62
15.19
13.26
10.57
7.06
2.82
-2.01
-7.37
-13.28
-19.85
-27.33
-36.10
-46.64
-59.18
-73.19
-87.01
-97.82
-102.22
-97.40
-82.22
-57.88
-27.67
4.00
32.96
56.26
72.61
82.15
85.86
85.00
80.83
74.53
67.15
59.59
52.49
46.14
40.53
35.51
30.97
26.96
23.72
21.43
20.07
19.24
18.25
16.30
12.76
7.46
0.71
-6.83
-14.41
-21.58
-28.28
-35.01
-42.65
-52.14
-64.01
-77.85
-91.92
-103.31
-108.54
-104.65
-90.35
-66.63
-36.62
-4.68
24.99
49.35
67.05
78.19
83.71
84.74
82.32
77.38
70.84
63.68
56.85
50.99
46.34
42.60
39.25
35.82
32.15
28.51
25.42
23.39
22.52
22.34
21.91
20.09
16.04
9.50
0.97
-8.56
-17.92
-26.25
-33.27
-39.36
-45.40
-52.50
-61.60
-73.00
-85.96
-98.51
-107.64
-110.07
-103.28
-86.52
-61.26
-30.84
0.49
28.84
51.61
67.82
77.83
82.68
83.44
80.96
75.92
68.99
61.04
53.11
46.18
40.94
37.56
35.71
34.72
33.95
33.00
31.88
30.86
30.23
30.02
29.84
28.93
26.46
21.80
14.84
6.04
-3.70
-13.34
-22.03
-29.39
-35.56
-41.08
-46.77
-53.49
-61.86
-72.02
-83.28
-93.97
-101.58
-103.33
-97.04
-81.93
-59.15
-31.52
-2.73
23.67
45.19
60.70
70.25
74.56
74.46
70.73
64.09
55.46
46.00
37.05
29.75
24.74
21.98
20.87
20.61
20.52
20.39
20.31
20.56
21.20
21.95
22.16
21.07
18.07
12.95
5.99
-2.11
-10.42
-18.09
-24.60
-29.98
-34.74
-39.78
-46.05
-54.18
-64.22
-75.32
-85.75
-93.12
-94.88
-89.13
-75.24
-54.26
-28.70
-1.91
22.89
43.30
58.10
67.12
70.82
69.91
65.13
57.35
47.68
37.40
27.87
20.07
14.47
10.93
8.94
7.92
7.52
7.68
8.47
9.90
11.64
13.03
13.22
11.49
7.47
1.33
-6.32
-14.58
-22.59
-29.76
-35.97
-41.62
-47.50
-54.56
-63.45
-74.08
-85.23
-94.57
-99.18
-96.38
-84.77
-64.82
-38.80
-10.26
17.15
40.49
58.10
69.53
75.19
75.88
72.52
66.16
57.96
49.15
40.89
33.97
28.70
24.85
21.88
19.31
16.94
14.95
13.76
13.60
14.32
15.25
15.35
13.65
9.63
3.41
-4.28
-12.41
-20.09
-26.85
-32.79
-38.46
-44.73
-52.42
-62.04
-73.39
-85.27
-95.46
-101.09
-99.41
-88.79
-69.40
-43.38
-14.26
14.06
38.38
56.81
68.86
75.08
76.46
74.07
68.94
62.05
54.43
47.10
40.92
36.33
33.26
31.15
29.28
27.07
24.44
21.77
19.72
18.72
18.69
18.85
18.08
15.32
10.09
2.70
-5.88
-14.46
-22.06
-28.29
-33.45
-38.33
-43.96
-51.29
-60.85
-72.36
-84.47
-94.80
-100.31
-98.22
-86.95
-66.87
-40.37
-11.23
16.55
39.90
57.24
68.44
74.32
75.95
74.25
69.91
63.63
56.21
48.63
41.83
36.44
32.62
30.07
28.23
26.54
24.74
22.88
21.29
20.28
19.96
19.98
19.62
17.98
14.33
8.41
0.62
-8.15
-16.77
-24.35
-30.48
-35.45
-40.02
-45.24
-52.10
-61.16
-72.23
-84.16
-94.77
-101.25
-100.86
-91.82
-74.08
-49.43
-21.17
6.93
31.58
50.78
63.91
71.38
74.11
73.02
68.92
62.56
54.84
46.79
39.44
33.55
29.38
26.71
25.02
23.75
22.55
21.41
20.52
20.12
20.23
20.54
20.46
19.21
16.11
10.89
3.81
-4.39
-12.73
-20.30
-26.65
-31.84
-36.47
-41.40
-47.53
-55.49
-65.31
-76.18
-86.31
-93.13
-93.93
-86.74
-71.03
-48.18
-21.11
6.56
31.47
51.35
65.21
73.13
75.75
73.88
68.40
60.28
50.74
41.09
32.58
26.01
21.54
18.77
16.96
15.47
14.00
12.68
11.90
11.97
12.89
14.18
14.97
14.29
11.40
6.14
-1.05
-9.24
-17.34
-24.48
-30.32
-35.11
-39.60
-44.73
-51.38
-60.01
-70.34
-81.12
-90.20
-94.85
-92.60
-82.01
-63.33
-38.58
-10.96
15.99
39.29
57.11
68.76
74.47
75.03
71.41
64.74
56.16
46.84
37.84
29.99
23.75
19.17
15.98
13.76
12.12
10.92
10.23
10.22
10.94
12.12
13.15
13.18
11.47
7.64
1.89
-5.14
-12.59
-19.74
-26.23
-32.20
-38.13
-44.76
-52.72
-62.29
-73.04
-83.64
-91.88
-95.15
-91.18
-78.84
-58.69
-33.01
-5.12
21.45
43.89
60.59
71.10
75.80
75.49
71.16
63.84
54.66
44.81
35.40
27.24
20.73
15.84
12.28
9.75
8.08
7.32
7.56
8.70
10.34
11.74
12.05
10.56
7.01
1.67
-4.79
-11.56
-18.00
-23.88
-29.42
-35.25
-42.13
-50.71
-61.03
-72.24
-82.46
-89.03
-89.21
-81.13
-64.52
-41.00
-13.69
13.67
37.75
56.30
68.35
74.09
74.34
70.28
63.15
54.18
44.50
35.05
26.47
19.11
13.08
8.40
5.02
2.96
2.23
2.69
4.01
5.65
6.93
7.13
5.74
2.56
-2.23
-8.13
-14.53
-20.88
-26.91
-32.79
-39.10
-46.59
-55.81
-66.59
-77.63
-86.59
-90.53
-86.86
-74.27
-53.38
-26.64
2.31
29.69
52.54
69.19
79.27
83.31
82.27
77.31
69.59
60.30
50.53
41.19
32.86
25.74
19.84
15.07
11.44
9.05
7.91
7.85
8.40
8.89
8.63
7.11
4.18
-0.00
-5.05
-10.56
-16.28
-22.14
-28.40
-35.58
-44.26
-54.82
-66.97
-79.37
-89.62
-94.75
-92.05
-80.08
-59.34
-32.30
-2.76
25.21
48.34
64.76
74.11
77.16
75.27
69.90
62.33
53.54
44.32
35.30
26.96
19.61
13.49
8.69
5.26
3.20
2.39
2.61
3.43
4.32
4.67
3.99
2.01
-1.31
-5.79
-11.13
-17.01
-23.20
-29.74
-36.90
-45.21
-55.05
-66.26
-77.61
-86.79
-90.88
-87.23
-74.58
-53.61
-26.97
1.57
28.14
49.81
65.00
73.48
75.93
73.44
67.23
58.52
48.50
38.24
28.68
20.42
13.71
8.60
4.93
2.61
1.55
1.63
2.56
3.85
4.82
4.84
3.47
0.61
-3.49
-8.40
-13.70
-19.15
-24.81
-31.08
-38.55
-47.77
-58.76
-70.57
-81.21
-87.88
-87.82
-79.25
-62.11
-38.21
-10.78
16.46
40.25
58.43
70.07
75.32
74.99
70.23
62.35
52.62
42.22
32.11
22.97
15.28
9.28
5.07
2.59
1.66
1.95
2.96
4.13
4.88
4.74
3.40
0.79
-2.94
-7.52
-12.67
-18.21
-24.20
-30.99
-39.14
-49.12
-60.92
-73.58
-85.07
-92.52
-93.01
-84.57
-66.98
-42.10
-13.38
15.09
39.73
58.24
69.87
75.07
75.01
70.96
64.06
55.19
45.16
34.80
25.02
16.72
10.57
6.85
5.30
5.28
5.94
6.52
6.56
5.87
4.46
2.34
-0.51
-4.19
-8.76
-14.23
-20.67
-28.25
-37.37
-48.41
-61.28
-74.93
-87.19
-95.01
-95.34
-86.25
-67.70
-41.74
-12.03
17.35
42.84
62.23
74.76
80.86
81.62
78.37
72.40
64.85
56.65
48.48
40.86
34.09
28.37
23.78
20.36
18.11
16.93
16.62
16.75
16.79
16.08
14.09
10.50
5.31
-1.18
-8.52
-16.32
-24.38
-32.86
-42.21
-52.97
-65.40
-78.95
-92.00
-101.85
-105.36
-99.97
-84.66
-60.59
-30.89
0.25
28.82
51.94
68.35
78.19
82.48
82.45
79.28
73.97
67.44
60.59
54.25
49.00
45.02
42.10
39.74
37.46
35.04
32.63
30.67
29.58
29.44
29.80
29.75
28.15
24.19
17.61
8.93
-0.81
-10.42
-19.00
-26.26
-32.57
-38.82
-46.09
-55.29
-66.78
-79.95
-93.11
-103.57
-108.23
-104.46
-91.02
-68.64
-39.96
-8.84
20.73
45.64
64.24
76.30
82.60
84.31
82.64
78.60
73.05
66.75
60.41
54.61
49.73
45.92
43.13
41.20
39.94
39.17
38.77
38.58
38.37
37.83
36.67
34.64
31.63
27.63
22.70
16.93
10.34
2.99
-4.97
-13.29
-21.57
-29.39
-36.43
-42.64
-48.23
-53.71
-59.84
-67.39
-76.75
-87.58
-98.43
-106.80
-109.70
-104.50
-89.96
-66.79
-37.63
-6.27
23.40
48.38
67.14
79.51
86.31
88.72
87.90
84.82
80.34
75.23
70.19
65.79
62.32
59.75
57.81
56.16
54.70
53.52
52.84
52.75
53.00
53.00
52.00
49.42
45.09
39.30
32.62
25.64
18.70
11.77
4.60
-3.14
-11.54
-20.37
-29.08
-37.01
-43.65
-48.86
-52.95
-56.62
-60.79
-66.38
-73.93
-83.25
-93.10
-101.23
-104.77
-101.18
-89.08
-68.99
-43.25
-15.44
10.77
32.55
48.44
58.28
62.78
63.00
59.99
54.69
48.03
40.96
34.39
29.06
25.33
23.14
22.08
21.56
21.21
20.93
20.96
21.61
22.98
24.78
26.29
26.69
25.32
22.07
17.35
11.92
6.49
1.48
-3.17
-7.82
-12.88
-18.51
-24.52
-30.46
-35.80
-40.23
-43.74
-46.70
-49.69
-53.43
-58.57
-65.41
-73.67
-82.19
-88.94
-91.41
-87.34
-75.50
-56.31
-31.86
-5.40
19.63
40.47
55.62
64.82
68.73
68.40
64.88
59.13
52.02
44.36
36.95
30.50
25.47
22.04
20.06
19.27
19.33
20.00
21.10
22.47
23.85
24.85
25.02
23.99
21.64
18.14
13.86
9.25
4.58
-0.16
-5.16
-10.70
-16.85
-23.46
-30.09
-36.28
-41.67
-46.24
-50.29
-54.44
-59.38
-65.62
-73.18
-81.25
-88.20
-91.78
-89.78
-80.71
-64.49
-42.60
-17.79
6.74
28.19
44.73
55.67
61.26
62.22
59.42
53.70
45.88
36.83
27.49
18.78
11.47
6.05
2.66
1.13
1.06
1.97
3.44
5.18
7.04
8.99
10.96
12.71
13.86
13.92
12.45
9.23
4.37
-1.72
-8.44
-15.19
-21.53
-27.27
-32.52
-37.61
-43.04
-49.35
-57.00
-66.12
-76.26
-86.17
-93.77
-96.53
-92.20
-79.60
-59.23
-33.32
-5.25
21.38
43.70
60.17
70.46
75.11
74.99
70.97
63.86
54.56
44.21
34.06
25.24
18.46
13.79
10.79
8.77
7.16
5.73
4.69
4.41
5.14
6.72
8.54
9.68
9.20
6.52
1.62
-5.01
-12.52
-20.04
-26.96
-33.10
-38.72
-44.35
-50.63
-58.15
-67.22
-77.56
-88.07
-96.76
-101.09
-98.59
-87.80
-68.86
-43.66
-15.38
12.49
36.94
56.12
69.29
76.61
78.61
76.10
69.98
61.35
51.49
41.70
32.96
25.80
20.18
15.68
11.82
8.40
5.61
3.90
3.73
5.16
7.64
10.09
11.21
9.95
5.95
-0.31
-7.78
-15.19
-21.69
-27.06
-31.81
-36.91
-43.37
-51.93
-62.66
-74.81
-86.65
-95.73
-99.29
-95.07
-82.06
-60.99
-34.30
-5.48
21.82
44.75
61.69
72.28
77.04
76.93
73.05
66.42
58.06
48.93
39.88
31.57
24.38
18.36
13.43
9.46
6.46
4.59
4.06
4.87
6.65
8.61
9.69
8.95
5.93
0.86
-5.48
-12.06
-18.09
-23.31
-28.17
-33.65
-40.88
-50.60
-62.67
-75.75
-87.31
-94.23
-93.66
-83.98
-65.40
-40.03
-11.26
17.14
41.95
61.06
73.61
79.77
80.38
76.62
69.77
61.04
51.46
41.81
32.62
24.26
16.96
10.92
6.32
3.29
1.87
1.87
2.90
4.35
5.46
5.53
4.07
0.94
-3.63
-9.17
-15.13
-21.12
-27.11
-33.48
-40.99
-50.40
-62.02
-75.17
-87.87
-97.14
-99.69
-93.04
-76.54
-51.72
-21.96
8.50
35.82
57.35
71.99
79.95
82.21
79.98
74.45
66.68
57.65
48.21
39.08
30.72
23.41
17.24
12.27
8.61
6.36
5.54
5.93
7.00
8.01
8.19
7.02
4.33
0.31
-4.59
-9.94
-15.53
-21.46
-28.16
-36.32
-46.50
-58.73
-72.06
-84.31
-92.44
-93.30
-84.76
-66.60
-40.76
-10.88
18.83
44.76
64.65
77.77
84.50
85.82
82.82
76.54
68.04
58.31
48.33
38.87
30.43
23.24
17.39
12.92
9.87
8.25
7.85
8.24
8.78
8.84
7.87
5.62
2.11
-2.43
-7.69
-13.42
-19.56
-26.36
-34.32
-44.03
-55.74
-68.78
-81.33
-90.47
-92.96
-86.36
-69.99
-45.46
-16.25
13.33
39.43
59.57
72.94
80.02
81.88
79.56
73.87
65.44
54.97
43.41
31.89
21.54
13.23
7.39
3.98
2.54
2.45
2.98
3.53
3.64
3.02
1.55
-0.81
-4.02
-8.04
-12.83
-18.43
-25.03
-33.02
-42.88
-54.79
-68.12
-81.04
-90.62
-93.59
-87.45
-71.55
-47.49
-18.79
10.35
36.25
56.60
70.66
78.71
81.45
79.56
73.61
64.31
52.74
40.33
28.59
18.77
11.47
6.65
3.73
1.92
0.53
-0.85
-2.32
-3.80
-5.21
-6.62
-8.28
-10.68
-14.41
-20.13
-28.38
-39.47
-53.11
-68.08
-82.11
-92.11
-95.02
-88.70
-72.82
-49.15
-21.02
7.64
33.45
54.26
69.30
78.72
83.09
82.96
78.84
71.37
61.47
50.43
39.68
30.46
23.50
18.85
15.95
13.87
11.76
9.10
5.83
2.25
-1.26
-4.49
-7.58
-10.97
-15.38
-21.55
-30.19
-41.68
-55.79
-71.38
-86.17
-96.98
-100.50
-94.28
-77.75
-52.55
-22.20
8.95
36.98
59.30
74.94
84.23
88.18
87.91
84.37
78.36
70.62
61.98
53.23
45.14
38.23
32.81
28.86
26.16
24.29
22.74
21.04
18.78
15.73
11.85
7.24
2.03
-3.75
-10.16
-17.43
-25.84
-35.77
-47.56
-61.27
-76.29
-90.91
-102.38
-107.35
-102.95
-87.87
-63.11
-31.87
1.45
32.48
58.07
76.65
88.15
93.39
93.49
89.71
83.32
75.70
68.18
61.74
56.81
53.16
50.12
46.96
43.31
39.32
35.60
32.85
31.44
31.12
30.98
29.80
26.49
20.54
12.22
2.43
-7.61
-16.89
-24.93
-31.96
-38.76
-46.52
-56.30
-68.65
-82.99
-97.40
-108.71
-113.25
-108.03
-91.91
-66.15
-34.25
-0.83
29.73
54.42
72.01
82.82
88.01
88.89
86.58
82.01
76.02
69.51
63.34
58.14
54.23
51.48
49.58
48.19
47.17
46.55
46.42
46.73
47.11
46.96
45.62
42.65
38.00
32.05
25.39
18.52
11.66
4.71
-2.64
-10.60
-19.08
-27.67
-35.80
-42.99
-49.07
-54.28
-59.16
-64.50
-71.11
-79.59
-89.91
-101.05
