BVP
64.000000
-0.00
-0.00
-0.00
-0.00
-0.00
-0.00
-0.00
-0.00
-0.00
-0.00
0.00
0.01
0.01
-0.00
-0.03
-0.05
-0.05
0.00
0.13
0.36
0.66
1.01
1.37
1.72
2.06
2.40
2.79
3.24
3.81
4.44
5.10
5.74
6.33
6.89
7.49
8.22
9.12
10.28
11.60
12.94
14.15
15.19
16.11
17.11
18.44
20.26
22.80
25.83
29.05
32.15
34.95
37.55
40.34
43.79
48.25
54.10
60.92
68.14
75.11
81.50
87.46
93.61
100.78
109.58
120.51
132.90
145.76
158.05
169.21
179.43
189.67
201.58
214.03
229.20
247.35
268.15
290.03
310.01
324.07
328.10
319.32
297.15
263.85
222.74
177.38
130.39
83.15
36.29
-9.66
-53.73
-94.79
-131.88
-165.28
-196.16
-226.24
-257.22
-290.13
-324.79
-359.34
-390.50
-414.03
-426.24
-425.29
-412.00
-389.60
-362.43
-334.32
-307.50
-282.48
-258.70
-235.73
-213.77
-193.46
-175.28
-159.02
-143.73
-128.29
-112.06
-95.22
-78.72
-63.79
-51.29
-41.32
-33.23
-25.96
-18.50
-10.27
-1.26
8.07
17.04
25.03
31.67
36.89
40.86
43.87
46.24
48.23
50.04
51.76
53.41
54.95
56.37
57.77
59.46
61.93
65.74
71.34
78.85
87.99
98.12
108.32
117.70
125.61
131.82
136.54
140.42
144.29
148.93
154.82
162.04
170.27
178.92
187.32
194.97
201.60
207.33
212.77
219.03
227.54
239.43
254.75
271.81
287.21
296.69
296.60
285.37
264.09
235.99
205.00
174.17
144.79
116.50
88.22
59.19
29.56
0.23
-27.79
-54.04
-78.84
-103.08
-127.76
-153.62
-181.09
-210.34
-241.32
-273.38
-304.85
-332.88
-353.92
-364.79
-363.95
-352.24
-332.67
-309.27
-285.68
-264.04
-244.90
-227.70
-211.74
-196.69
-182.63
-169.74
-157.90
-146.65
-135.43
-123.92
-112.30
-101.23
-91.52
-83.72
-77.83
-73.29
-69.22
-64.85
-59.84
-54.38
-49.05
-44.47
-41.00
-38.57
-36.73
-34.89
-32.52
-29.43
-25.77
-21.96
-18.53
-15.81
-13.90
-12.59
-11.48
-10.20
-8.56
-6.63
-4.66
-2.96
-1.77
-1.12
-0.91
-0.89
-0.84
-0.56
0.02
0.86
1.85
2.85
3.72
4.39
4.87
5.26
5.73
6.44
7.47
8.76
10.17
11.52
12.63
13.49
14.15
14.74
15.36
16.03
16.68
17.20
17.49
17.55
17.45
17.28
17.12
16.97
16.81
16.57
16.28
16.00
15.84
15.87
16.06
16.30
16.42
16.33
16.01
15.57
15.15
14.85
14.68
14.58
14.48
14.36
14.22
14.08
13.90
13.61
13.15
12.52
11.76
10.98
10.26
9.67
9.25
9.02
8.98
9.09
9.27
9.37
9.33
9.14
8.86
8.57
8.33
8.13
7.92
7.70
7.50
7.37
7.35
7.38
7.38
7.24
6.92
6.47
5.99
5.59
5.38
5.35
5.46
5.64
5.79
5.84
5.78
5.64
5.45
5.27
5.13
5.04
5.00
5.06
5.25
5.52
5.72
5.59
4.93
3.66
1.95
0.15
-1.32
-2.13
-2.15
-1.46
-0.25
1.26
2.88
4.47
5.89
6.93
7.44
7.32
6.66
5.72
4.84
4.27
4.09
4.22
4.46
4.64
4.66
4.54
4.32
4.01
3.59
3.03
2.30
1.45
0.59
-0.17
-0.72
-0.99
-0.96
-0.64
-0.11
0.53
1.17
1.71
2.12
2.42
2.71
3.05
3.49
3.96
4.35
4.52
4.43
4.14
3.79
3.54
3.43
3.39
3.29
3.07
2.76
2.49
2.43
2.64
3.02
3.41
3.64
3.66
3.52
3.32
3.14
2.99
2.86
2.73
2.62
2.61
2.74
3.06
3.53
4.03
4.39
4.43
4.04
3.25
2.23
1.22
0.46
0.08
0.05
0.21
0.40
0.51
0.60
0.78
1.14
1.66
2.19
2.54
2.63
2.51
2.33
2.25
2.40
2.72
3.11
3.44
3.63
3.71
3.79
3.96
4.24
4.57
4.80
4.76
4.32
3.49
2.37
1.19
0.12
-0.76
-1.49
-2.18
-2.90
-3.64
-4.24
-4.56
-4.46
-3.97
-3.19
-2.26
-1.31
-0.49
0.09
0.27
-0.05
-0.95
-2.42
-4.40
-6.80
-9.50
-12.39
-15.31
-18.09
-20.51
-22.39
-23.60
-24.08
-23.90
-23.24
-22.34
-21.48
-20.87
-20.64
-20.79
-21.28
-22.05
-23.03
-24.13
-25.21
-26.03
-26.32
-25.80
-24.28
-21.58
-17.53
-11.94
-4.72
4.05
13.98
24.24
33.73
41.30
46.02
47.40
45.52
40.90
34.38
26.90
19.35
12.46
6.79
2.72
0.45
-0.05
1.03
3.39
6.61
10.29
14.05
17.57
20.55
22.73
23.82
23.58
21.86
18.69
14.34
9.29
4.11
-0.71
-4.86
-8.27
-10.97
-12.96
-14.17
-14.45
-13.68
-11.89
-9.21
-5.88
-2.13
1.85
5.92
9.93
13.70
16.99
19.50
20.99
21.32
20.54
18.90
16.75
14.43
12.21
10.17
8.34
6.67
5.19
3.97
3.07
2.45
2.00
1.58
1.11
0.61
0.22
0.03
0.09
0.34
0.70
1.08
1.47
1.82
2.08
2.14
1.93
1.45
0.86
0.36
0.13
0.22
0.51
0.78
0.81
0.52
-0.03
-0.70
-1.27
-1.59
-1.61
-1.41
-1.11
-0.85
-0.66
-0.49
-0.22
0.22
0.87
1.62
2.32
2.79
2.95
2.82
2.48
2.06
1.67
1.34
1.04
0.73
0.36
-0.10
-0.64
-1.23
-1.82
-2.38
-2.84
-3.14
-3.23
-3.10
-2.82
-2.47
-2.14
-1.90
-1.72
-1.60
-1.47
-1.31
-1.15
-1.02
-0.93
-0.92
-0.98
-1.09
-1.24
-1.45
-1.76
-2.17
-2.66
-3.12
-3.41
-3.40
-3.08
-2.52
-1.89
-1.37
-1.01
-0.74
-0.46
-0.04
0.49
1.00
1.31
1.28
0.95
0.43
-0.06
-0.37
-0.45
-0.38
-0.26
-0.18
-0.15
-0.12
-0.06
0.04
0.14
0.22
0.28
0.32
0.37
0.42
0.44
0.43
0.40
0.45
0.67
1.07
1.62
2.17
2.55
2.63
2.36
1.81
1.10
0.43
-0.07
-0.31
-0.26
-0.03
0.27
0.50
0.56
0.43
0.21
0.01
-0.07
0.01
0.18
0.34
0.37
0.26
0.04
-0.20
-0.39
-0.49
-0.51
-0.50
-0.47
-0.41
-0.28
-0.07
0.21
0.50
0.74
0.91
1.04
1.17
1.34
1.56
1.77
1.90
1.87
1.66
1.34
0.95
0.54
0.09
-0.42
-0.95
-1.40
-1.64
-1.57
-1.17
-0.58
0.05
0.56
0.89
1.05
1.13
1.19
1.25
1.30
1.29
1.21
1.06
0.89
0.75
0.69
0.71
0.81
0.90
0.90
0.76
0.43
-0.06
-0.63
-1.15
-1.53
-1.71
-1.69
-1.54
-1.32
-1.04
-0.68
-0.20
0.46
1.23
2.01
2.63
2.96
2.92
2.57
2.06
1.59
1.38
1.55
2.10
2.88
3.68
4.29
4.62
4.70
4.70
4.77
5.00
5.33
5.65
5.81
5.72
5.33
4.64
3.66
2.36
0.80
-0.94
-2.70
-4.30
-5.62
-6.62
-7.34
-7.87
-8.25
-8.45
-8.40
-8.05
-7.43
-6.59
-5.66
-4.71
-3.78
-2.90
-2.09
-1.38
-0.85
-0.54
-0.45
-0.51
-0.60
-0.63
-0.56
-0.40
-0.19
0.00
0.16
0.30
0.43
0.60
0.77
0.92
0.98
0.93
0.79
0.60
0.43
0.32
0.25
0.22
0.19
0.19
0.22
0.32
0.44
0.53
0.48
0.25
-0.18
-0.73
-1.31
-1.83
-2.23
-2.52
-2.66
-2.67
-2.51
-2.21
-1.81
-1.43
-1.21
-1.22
-1.45
-1.78
-2.03
-2.07
-1.85
-1.49
-1.15
-0.98
-0.98
-1.06
-1.07
-0.88
-0.49
0.02
0.52
0.91
1.16
1.34
1.56
1.87
2.28
2.66
2.90
2.92
2.74
2.51
2.35
2.32
2.37
2.38
2.21
1.85
1.35
0.84
0.37
-0.03
-0.40
-0.74
-1.01
-1.15
-1.09
-0.86
-0.54
-0.23
-0.03
0.02
-0.10
-0.39
-0.81
-1.34
-1.91
-2.45
-2.90
-3.24
-3.53
-3.83
-4.17
-4.56
-4.91
-5.17
-5.27
-5.20
-5.05
-4.95
-5.04
-5.43
-6.16
-7.13
-8.22
-9.28
-10.21
-11.00
-11.65
-12.20
-12.63
-12.94
-13.15
-13.38
-13.77
-14.47
-15.50
-16.76
-18.06
-19.24
-20.31
-21.42
-22.86
-24.83
-27.39
-30.31
-33.21
-35.70
-37.48
-38.48
-38.81
-38.64
-38.14
-37.38
-36.31
-34.90
-33.15
-31.15
-29.11
-27.21
-25.58
-24.18
-22.85
-21.37
-19.51
-17.02
-13.50
-8.40
-1.09
8.77
20.92
34.26
46.97
57.06
62.99
64.24
61.36
55.69
48.75
41.74
35.27
29.52
24.36
19.63
15.12
10.55
5.57
-0.20
-6.97
-14.54
-22.38
-29.81
-36.40
-42.20
-47.77
-53.84
-60.82
-68.55
-76.33
-83.27
-88.81
-92.96
-96.24
-99.44
-103.26
-108.17
-114.19
-120.67
-125.97
-127.35
-121.52
-105.78
-79.50
-44.95
-6.93
28.77
57.62
77.96
91.14
100.29
108.32
116.42
123.83
128.80
129.98
127.34
122.08
115.85
109.72
103.79
97.40
89.87
81.14
72.00
63.72
57.40
53.42
51.20
49.60
47.39
43.87
39.15
34.12
30.01
27.86
28.04
30.11
32.96
35.29
36.13
35.19
32.85
29.92
27.13
24.85
22.94
20.97
18.51
15.46
12.10
8.94
6.47
4.91
4.16
3.89
3.72
3.40
2.85
2.12
1.29
0.46
-0.30
-0.96
-1.48
-1.83
-2.04
-2.21
-2.53
-3.19
-4.33
-5.97
-7.98
-10.10
-12.04
-13.59
-14.62
-15.14
-15.26
-15.05
-14.60
-13.90
-12.90
-11.56
-9.85
-7.81
-5.58
-3.35
-1.32
0.40
1.80
2.94
3.90
4.71
5.30
5.58
5.51
5.15
4.66
4.22
3.97
3.93
4.01
4.08
4.04
3.90
3.74
3.62
3.57
3.51
3.31
2.90
2.27
1.58
0.98
0.61
0.48
0.51
0.55
0.49
0.35
0.19
0.13
0.20
0.39
0.60
0.73
0.70
0.50
0.17
-0.28
-0.80
-1.43
-2.20
-3.08
-4.02
-4.88
-5.50
-5.78
-5.69
-5.29
-4.71
-4.07
-3.45
-2.88
-2.32
-1.74
-1.13
-0.52
0.03
0.47
0.75
0.87
0.86
0.82
0.87
1.08
1.47
2.00
2.52
2.90
2.98
2.67
1.94
0.89
-0.31
-1.41
-2.19
-2.52
-2.37
-1.86
-1.10
-0.16
0.95
2.25
3.72
5.25
6.63
7.70
8.39
8.78
9.07
9.45
10.10
11.06
12.27
13.61
14.86
15.74
15.92
15.06
12.93
9.49
4.93
-0.32
-5.76
-10.86
-15.18
-18.42
-20.41
-21.10
-20.57
-19.07
-16.98
-14.78
-12.93
-11.74
-11.28
-11.41
-11.83
-12.23
-12.34
-12.01
-11.18
-9.88
-8.20
-6.28
-4.30
-2.52
-1.15
-0.38
-0.28
-0.83
-1.93
-3.47
-5.38
-7.64
-10.25
-13.12
-16.09
-18.87
-21.16
-22.74
-23.49
-23.38
-22.43
-20.62
-17.95
-14.54
-10.59
-6.43
-2.40
1.27
4.39
6.88
8.62
9.44
9.25
8.14
6.50
4.88
3.91
3.97
5.12
7.08
9.44
11.79
13.92
15.82
17.68
19.72
22.14
24.97
27.99
30.74
32.64
33.20
32.14
29.57
25.93
21.84
17.94
14.68
12.27
10.63
9.54
8.74
8.03
7.31
6.62
5.98
5.33
4.46
3.06
0.91
-2.03
-5.49
-9.01
-12.10
-14.44
-15.94
-16.72
-16.92
-16.64
-15.87
-14.56
-12.72
-10.53
-8.28
-6.30
-4.84
-4.01
-3.71
-3.78
-4.01
-4.28
-4.55
-4.87
-5.29
-5.81
-6.34
-6.73
-6.77
-6.35
-5.44
-4.14
-2.66
-1.29
-0.29
0.16
0.00
-0.67
-1.65
-2.72
-3.65
-4.32
-4.67
-4.74
-4.54
-4.14
-3.55
-2.85
-2.12
-1.51
-1.13
-1.06
-1.24
-1.54
-1.76
-1.74
-1.44
-0.91
-0.29
0.25
0.59
0.70
0.57
0.26
-0.13
-0.50
-0.74
-0.81
-0.74
-0.66
-0.69
-0.93
-1.35
-1.81
-2.17
-2.35
-2.39
-2.39
-2.48
-2.75
-3.15
-3.61
-3.98
-4.19
-4.25
-4.26
-4.35
-4.63
-5.12
-5.72
-6.30
-6.75
-7.06
-7.35
-7.76
-8.38
-9.11
-9.80
-10.33
-10.75
-11.18
-11.62
-11.75
-10.91
-8.39
-3.91
2.07
8.47
14.09
18.28
21.16
23.44
25.90
28.86
32.06
34.82
36.47
36.52
34.65
30.62
24.11
14.94
3.35
-9.78
-22.91
-34.26
-42.40
-46.77
-47.88
-47.09
-45.99
-45.83
-47.07
-49.35
-51.83
-53.66
-54.32
-53.83
-52.64
-51.52
-51.18
-52.05
-53.91
-55.75
-55.99
-53.08
-46.05
-35.12
-21.80
-8.73
0.77
3.37
-3.41
-20.39
-46.19
-77.29
-109.06
-137.10
-158.75
-173.67
-183.48
-190.74
-197.92
-206.91
-218.94
-234.55
-253.28
-273.20
-290.91
-302.24
-303.70
-293.97
-274.36
-248.22
-219.42
-190.84
-163.57
-137.09
-110.23
-82.00
-52.19
-21.17
10.42
42.04
73.44
104.57
135.51
166.57
198.44
232.25
269.15
309.40
351.56
392.14
426.37
449.84
460.21
458.21
447.27
432.06
416.68
403.69
394.17
388.32
385.96
386.34
387.59
386.51
379.14
362.25
334.68
297.93
255.29
210.31
165.23
120.64
76.25
32.32
-9.44
-45.94
-73.87
-91.12
-97.70
-95.81
-88.99
-80.87
-74.26
-70.57
-69.93
-71.54
-74.06
-75.74
-74.58
-68.77
-57.41
-41.43
-24.24
-11.38
-9.10
-21.91
-50.35
-90.10
-133.09
-170.38
-195.56
-206.79
-206.85
-200.96
-193.81
-187.34
-180.43
-170.36
-154.96
-134.23
-110.48
-87.06
-66.73
-50.37
-36.93
-24.23
-10.09
6.77
26.56
48.44
70.58
89.96
102.52
103.75
90.38
62.38
24.25
-15.45
-46.75
-61.89
-58.28
-39.22
-12.09
15.09
36.53
49.96
55.70
54.98
48.54
36.62
19.88
0.32
-18.74
-33.66
-41.99
-43.46
-39.96
-34.46
-29.64
-27.00
-26.49
-26.91
-26.78
-25.02
-21.47
-16.86
-12.40
-9.29
-8.12
-8.68
-10.18
-11.62
-12.31
-12.10
-11.36
-10.72
-10.72
-11.58
-13.08
-14.68
-15.75
-15.81
-14.70
-12.67
-10.20
-7.87
-6.14
-5.17
-4.91
-5.11
-5.55
-6.04
-6.50
-6.89
-7.14
-7.19
-6.98
-6.54
-5.94
-5.31
-4.73
-4.24
-3.84
-3.52
-3.32
-3.29
-3.46
-3.75
-4.04
-4.14
-3.93
-3.33
-2.35
-1.05
0.54
2.32
4.18
5.93
7.29
8.06
8.09
7.43
6.26
4.84
3.44
2.20
1.14
0.23
-0.55
-1.12
-1.33
-1.02
-0.17
1.03
2.21
2.93
2.85
1.82
-0.04
-2.46
-4.98
-7.09
-8.27
-8.09
-6.41
-3.46
0.13
3.48
5.75
6.47
5.66
3.82
1.69
-0.09
-1.22
-1.79
-2.10
-2.47
-3.01
-3.52
-3.72
-3.36
-2.48
-1.40
-0.56
-0.37
-0.96
-2.28
-4.17
-6.47
-9.08
-11.83
-14.45
-16.57
-17.84
-18.14
-17.63
-16.72
-15.89
-15.59
-16.06
-17.43
-19.62
-22.37
-25.21
-27.62
-29.20
-29.96
-30.46
-31.57
-34.16
-38.53
-44.20
-50.05
-54.76
-57.51
-58.36
-58.30
-58.81
-61.34
-66.61
-74.34
-83.45
-92.39
-99.87
-105.31
-109.17
-112.76
-117.92
-126.46
-139.55
-157.15
-177.46
-196.82
-210.21
-212.69
-201.26
-176.63
-143.59
-109.86
-83.32
-69.16
-68.16
-76.97
-89.98
-101.75
-108.77
-109.63
-104.26
-92.77
-74.92
-50.27
-18.66
19.16
61.32
104.79
145.67
179.72
203.07
213.36
210.60
197.59
179.37
161.80
149.69
145.50
148.95
157.62
168.24
177.94
184.84
188.08
187.43
182.91
174.75
163.54
150.38
136.90
124.78
115.16
108.29
103.42
99.27
94.60
88.72
81.74
74.46
68.03
63.37
60.77
59.53
58.24
55.32
49.78
41.79
32.63
24.00
17.18
12.32
8.54
4.47
-0.79
-7.23
-13.93
-19.64
-23.49
-25.35
-25.68
-25.12
-24.14
-22.92
-21.46
-19.77
-18.00
-16.42
-15.23
-14.47
-13.97
-13.47
-12.75
-11.75
-10.55
-9.39
-8.46
-7.88
-7.63
-7.56
-7.51
-7.26
-6.75
-5.98
-5.12
-4.38
-3.96
-3.91
-4.15
-4.44
-4.54
-4.33
-3.87
-3.34
-2.93
-2.74
-2.70
-2.68
-2.55
-2.32
-2.08
-1.98
-2.14
-2.58
-3.25
-4.07
-4.96
-5.81
-6.43
-6.53
-5.85
-4.24
-1.83
0.98
3.68
5.80
7.15
7.77
7.90
7.79
7.57
7.26
6.81
6.27
5.71
5.24
4.94
4.77
4.61
4.36
3.95
3.43
2.87
2.42
2.12
2.01
2.02
2.07
2.09
2.04
1.94
1.82
1.70
1.58
1.45
1.31
1.17
1.06
1.02
1.04
1.13
1.26
1.38
1.44
1.45
1.41
1.35
1.30
1.27
1.26
1.21
1.04
0.71
0.24
-0.26
-0.60
-0.67
-0.43
0.02
0.48
0.74
0.71
0.42
0.02
-0.33
-0.54
-0.61
-0.63
-0.68
-0.77
-0.84
-0.83
-0.69
-0.52
-0.40
-0.42
-0.59
-0.80
-0.92
-0.89
-0.72
-0.54
-0.48
-0.57
-0.78
-0.99
-1.09
-1.07
-0.98
-0.90
-0.87
-0.86
-0.80
-0.68
-0.52
-0.40
-0.37
-0.44
-0.51
-0.48
-0.30
-0.00
0.28
0.44
0.42
0.26
0.08
0.03
0.16
0.44
0.74
0.89
0.80
0.46
-0.02
-0.49
-0.82
-0.97
-0.98
-0.93
-0.89
-0.88
-0.86
-0.77
-0.61
-0.43
-0.37
-0.59
-1.15
-2.01
-2.99
-3.81
-4.28
-4.27
-3.88
-3.36
-3.07
-3.31
-4.22
-5.68
-7.36
-8.84
-9.76
-10.04
-9.91
-9.80
-10.20
-11.36
-13.21
-15.36
-17.26
-18.56
-19.10
-19.12
-19.03
-19.30
-20.28
-22.26
-25.39
-29.58
-34.25
-38.18
-39.72
-37.38
-30.61
-20.21
-8.19
3.01
11.54
16.76
19.25
20.18
20.60
20.97
21.27
21.32
21.14
21.06
21.47
22.53
24.05
25.62
26.77
27.17
26.85
26.09
25.32
24.91
25.00
25.44
25.89
26.00
25.65
25.04
24.57
24.69
25.57
27.08
28.78
30.24
31.21
31.88
32.72
34.32
37.04
40.84
45.23
49.59
53.43
56.70
59.84
63.56
68.50
74.90
82.43
90.43
98.22
105.42
112.12
118.76
125.92
134.09
143.75
155.45
169.69
186.48
204.67
221.59
233.36
236.04
227.04
206.24
175.87
139.55
100.58
60.88
21.06
-18.52
-56.61
-90.81
-118.53
-138.46
-151.57
-160.78
-169.36
-179.20
-189.88
-199.16
-204.47
-204.44
-199.60
-191.81
-183.06
-174.53
-166.22
-157.50
-147.84
-137.31
-126.49
-116.19
-107.00
-99.03
-92.00
-85.39
-78.81
-72.09
-65.33
-58.86
-53.04
-48.08
-43.94
-40.39
-37.04
-33.56
-29.76
-25.68
-21.60
-17.81
-14.54
-11.72
-9.09
-6.25
-2.92
0.91
4.89
8.48
11.16
12.63
12.92
12.34
11.23
9.83
8.26
6.54
4.78
3.15
1.90
1.19
1.02
1.26
1.68
2.13
2.52
2.89
3.33
3.94
4.85
6.15
7.92
10.09
12.43
14.58
16.11
16.63
15.94
14.00
10.95
7.08
2.81
-1.36
-4.95
-7.63
-9.35
-10.32
-10.96
-11.65
-12.60
-13.77
-14.92
-15.81
-16.31
-16.47
-16.55
-16.75
-17.18
-17.77
-18.31
-18.57
-18.45
-17.91
-16.99
-15.68
-13.92
-11.69
-9.11
-6.44
-4.07
-2.31
-1.24
-0.68
-0.26
0.40
1.52
3.12
5.09
7.28
9.58
11.90
14.11
16.04
17.48
18.29
18.42
17.99
17.21
16.32
15.47
14.72
14.05
13.40
12.76
12.13
11.56
11.10
10.77
10.55
10.37
10.10
9.64
8.91
7.95
6.90
5.93
5.19
4.69
4.34
3.97
3.44
2.70
1.80
0.87
0.04
-0.58
-0.95
-1.09
-1.03
-0.84
-0.58
-0.30
-0.03
0.19
0.32
0.30
0.08
-0.35
-0.92
-1.49
-1.88
-1.96
-1.71
-1.20
-0.59
-0.04
0.31
0.38
0.18
-0.26
-0.86
-1.50
-2.07
-2.51
-2.78
-2.93
-3.02
-3.11
-3.28
-3.54
-3.91
-4.35
-4.79
-5.13
-5.29
-5.25
-5.03
-4.73
-4.44
-4.22
-4.05
-3.88
-3.68
-3.44
-3.17
-2.90
-2.64
-2.39
-2.14
-1.92
-1.74
-1.64
-1.62
-1.68
-1.80
-1.98
-2.22
-2.50
-2.77
-3.01
-3.18
-3.29
-3.37
-3.41
-3.38
-3.24
-2.97
-2.61
-2.26
-1.99
-1.86
-1.84
-1.88
-1.94
-2.00
-2.05
-2.07
-2.01
-1.84
-1.57
-1.25
-0.97
-0.81
-0.80
-0.90
-1.07
-1.27
-1.48
-1.69
-1.87
-2.01
-2.10
-2.09
-1.91
-1.46
-0.63
0.58
2.08
3.64
4.96
5.83
6.14
5.92
5.33
4.54
3.70
2.92
2.27
1.77
1.44
1.24
1.13
1.01
0.82
0.53
0.13
-0.28
-0.63
-0.86
-0.97
-0.99
-1.03
-1.15
-1.37
-1.61
-1.75
-1.68
-1.36
-0.83
-0.22
0.35
0.79
1.11
1.37
1.62
1.86
2.02
2.03
1.86
1.55
1.21
0.95
0.83
0.85
0.96
1.07
1.13
1.06
0.84
0.48
0.00
-0.53
-1.05
-1.52
-1.89
-2.15
-2.29
-2.27
-2.09
-1.77
-1.35
-0.93
-0.60
-0.44
-0.51
-0.79
-1.24
-1.78
-2.32
-2.78
-3.07
-3.18
-3.12
-2.94
-2.72
-2.53
-2.38
-2.26
-2.11
-1.91
-1.65
-1.39
-1.20
-1.10
-1.03
-0.90
-0.63
-0.17
0.42
1.04
1.57
1.98
2.27
2.50
2.73
2.97
3.23
3.44
3.53
3.45
3.14
2.57
1.78
0.84
-0.16
-1.10
-1.89
-2.46
-2.77
-2.83
-2.66
-2.31
-1.85
-1.37
-0.94
-0.62
-0.38
-0.21
-0.04
0.14
0.35
0.58
0.81
1.03
1.24
1.40
1.47
1.43
1.26
1.01
0.76
0.58
0.50
0.51
0.54
0.51
0.35
0.06
-0.35
-0.81
-1.25
-1.62
-1.93
-2.17
-2.34
-2.43
-2.40
-2.28
-2.12
-2.01
-2.02
-2.20
-2.49
-2.78
-2.95
-2.93
-2.68
-2.23
-1.64
-0.95
-0.18
0.66
1.58
2.57
3.62
4.71
5.83
6.97
8.10
9.17
10.09
10.75
11.09
11.11
10.94
10.74
10.67
10.77
10.97
11.16
11.26
11.32
11.44
11.74
12.20
12.62
12.71
12.24
11.24
10.05
9.29
9.57
11.25
14.16
17.68
20.87
22.88
23.34
22.53
21.32
20.80
21.77
24.40
28.18
32.14
35.35
37.33
38.19
38.60
39.37
41.25
44.78
50.25
57.42
65.15
71.04
71.75
64.06
46.50
20.44
-9.82
-38.52
-60.59
-73.47
-77.70
-75.98
-71.46
-66.35
-61.35
-56.29
-51.00
-45.86
-41.70
-39.19
-38.34
-38.38
-38.20
-36.85
-34.00
-30.07
-25.97
-22.63
-20.59
-19.80
-19.70
-19.49
-18.52
-16.58
-13.93
-11.16
-8.94
-7.70
-7.51
-8.01
-8.67
-8.96
-8.60
-7.65
-6.42
-5.31
-4.63
-4.42
-4.48
-4.53
-4.31
-3.75
-2.98
-2.22
-1.67
-1.43
-1.43
-1.53
-1.58
-1.49
-1.28
-1.00
-0.70
-0.44
-0.22
-0.06
0.07
0.20
0.37
0.60
0.89
1.19
1.45
1.65
1.78
1.91
2.08
2.33
2.66
3.00
3.28
3.43
3.45
3.34
3.17
2.94
2.65
2.23
1.65
0.91
0.13
-0.54
-0.96
-1.13
-1.10
-1.04
-1.03
-1.09
-1.15
-1.11
-0.95
-0.77
-0.69
-0.80
-1.06
-1.35
-1.54
-1.56
-1.45
-1.30
-1.20
-1.17
-1.16
-1.11
-1.00
-0.87
-0.77
-0.79
-0.95
-1.23
-1.56
-1.88
-2.09
-2.15
-2.02
-1.73
-1.36
-0.98
-0.68
-0.47
-0.38
-0.39
-0.50
-0.73
-1.03
-1.37
-1.65
-1.81
-1.87
-1.87
-1.91
-2.05
-2.31
-2.65
-2.99
-3.27
-3.49
-3.66
-3.82
-4.02
-4.26
-4.50
-4.68
-4.73
-4.63
-4.40
-4.12
-3.85
-3.65
-3.52
-3.41
-3.22
-2.87
-2.30
-1.57
-0.75
0.05
0.75
1.33
1.86
2.48
3.32
4.41
5.66
6.95
8.15
9.33
10.68
12.49
14.97
18.04
21.30
24.14
25.94
26.33
25.39
23.67
22.02
21.26
21.91
23.89
26.61
29.15
30.67
30.86
30.13
29.50
30.20
33.04
37.99
44.12
49.95
54.11
56.00
56.02
55.37
55.69
58.48
64.76
74.73
87.39
100.15
108.85
108.61
95.46
68.36
30.24
-12.34
-51.42
-80.43
-96.50
-100.87
-97.55
-91.01
-84.25
-78.22
-72.50
-66.54
-60.46
-55.09
-51.28
-49.21
-48.16
-46.87
-44.23
-39.84
-34.11
-28.07
-22.70
-18.56
-15.53
-13.08
-10.58
-7.68
-4.39
-0.98
2.25
5.17
7.86
10.47
13.09
15.67
18.09
20.32
22.57
25.25
28.74
33.16
38.17
43.02
46.89
49.26
50.21
50.41
50.90
52.68
56.44
62.41
70.26
78.83
85.85
87.92
81.34
63.55
34.73
-1.47
-38.75
-70.35
-91.56
-101.30
-101.88
-97.32
-91.28
-85.62
-80.50
-75.34
-69.93
-64.80
-60.82
-58.46
-57.26
-56.10
-53.79
-49.78
-44.44
-38.84
-34.19
-31.26
-30.08
-29.99
-30.02
-29.27
-27.33
-24.34
-20.85
-17.59
-15.14
-13.75
-13.25
-13.22
-13.11
-12.50
-11.25
-9.54
-7.75
-6.28
-5.38
-5.02
-4.99
-4.96
-4.71
-4.19
-3.49
-2.82
-2.33
-2.08
-2.06
-2.15
-2.29
-2.48
-2.76
-3.20
-3.82
-4.61
-5.53
-6.57
-7.74
-9.12
-10.73
-12.59
-14.60
-16.67
-18.71
-20.69
-22.66
-24.69
-26.86
-29.15
-31.45
-33.58
-35.37
-36.67
-37.54
-38.19
-39.00
-40.39
-42.66
-45.93
-50.04
-54.63
-59.31
-63.86
-68.32
-73.00
-78.33
-84.57
-91.69
-99.34
-106.93
-113.89
-119.90
-124.95
-129.37
-133.66
-138.33
-143.59
-148.92
-152.95
-153.42
-147.64
-133.25
-108.97
-75.19
-34.12
10.63
54.78
94.30
126.23
149.13
163.20
169.96
171.62
170.41
168.06
165.52
163.10
160.71
158.14
155.16
151.53
146.98
141.28
134.38
126.55
118.30
110.27
102.98
96.61
90.95
85.55
79.97
73.97
67.65
61.32
55.44
50.37
46.28
43.12
40.62
38.36
35.91
32.92
29.28
25.10
20.69
16.40
12.48
8.98
5.78
2.67
-0.48
-3.66
-6.69
-9.34
-11.41
-12.84
-13.67
-14.12
-14.39
-14.68
-15.07
-15.50
-15.82
-15.91
-15.70
-15.25
-14.69
-14.18
-13.79
-13.51
-13.27
-12.99
-12.61
-12.13
-11.62
-11.14
-10.71
-10.36
-10.03
-9.67
-9.24
-8.73
-8.18
-7.64
-7.16
-6.70
-6.20
-5.62
-4.95
-4.23
-3.56
-2.95
-2.36
-1.71
-0.91
0.06
1.11
2.07
2.81
3.26
3.50
3.72
4.14
4.89
5.96
7.19
8.33
9.14
9.54
9.67
9.79
10.28
11.42
13.26
15.58
17.89
19.68
20.63
20.76
20.52
20.57
21.54
23.72
26.88
30.35
33.28
35.06
35.66
35.68
36.15
38.08
41.97
47.50
53.63
59.00
62.57
64.12
64.37
64.72
66.85
72.16
81.32
93.75
107.33
118.34
121.98
113.66
90.70
53.92
7.97
-39.67
-81.13
-110.67
-126.39
-130.07
-125.79
-117.74
-108.79
-100.07
-91.72
-83.74
-76.61
-71.11
-67.68
-66.00
-64.85
-62.78
-58.80
-52.91
-46.05
-39.68
-35.00
-32.47
-31.61
-31.35
-30.52
-28.43
-25.05
-21.00
-17.17
-14.34
-12.83
-12.47
-12.67
-12.76
-12.19
-10.73
-8.57
-6.21
-4.20
-2.99
-2.66
-2.95
-3.39
-3.55
-3.21
-2.50
-1.72
-1.18
-1.05
-1.25
-1.59
-1.83
-1.84
-1.62
-1.26
-0.88
-0.57
-0.36
-0.22
-0.11
0.02
0.16
0.28
0.30
0.23
0.12
0.06
0.15
0.39
0.71
1.01
1.23
1.34
1.41
1.48
1.57
1.67
1.74
1.76
1.76
1.77
1.77
1.72
1.53
1.12
0.49
-0.26
-1.03
-1.69
-2.16
-2.44
-2.58
-2.61
-2.53
-2.35
-2.06
-1.70
-1.35
-1.08
-0.91
-0.83
-0.76
-0.67
-0.52
-0.34
-0.12
0.12
0.39
0.63
0.76
0.71
0.47
0.15
-0.11
-0.23
-0.18
-0.03
0.09
0.13
0.11
0.09
0.17
0.40
0.73
1.08
1.33
1.41
1.29
1.02
0.72
0.49
0.37
0.31
0.19
-0.08
-0.51
-0.98
-1.36
-1.52
-1.50
-1.43
-1.48
-1.74
-2.19
-2.74
-3.25
-3.65
-3.94
-4.15
-4.35
-4.58
-4.87
-5.26
-5.73
-6.26
-6.79
-7.28
-7.71
-8.15
-8.65
-9.25
-9.94
-10.62
-11.19
-11.58
-11.79
-11.86
-11.87
-11.87
-11.84
-11.76
-11.57
-11.25
-10.86
-10.52
-10.33
-10.39
-10.69
-11.14
-11.64
-12.12
-12.60
-13.20
-14.08
-15.31
-16.87
-18.57
-20.21
-21.63
-22.74
-23.52
-23.92
-23.84
-23.12
-21.63
-19.36
-16.42
-13.01
-9.29
-5.37
-1.25
3.10
7.68
12.46
17.44
22.65
28.17
34.00
40.02
45.93
51.24
55.43
58.11
59.10
58.50
56.65
54.02
51.09
48.28
45.79
43.64
41.66
39.56
37.02
33.78
29.77
25.11
20.09
15.05
10.32
6.11
2.49
-0.58
-3.21
-5.52
-7.60
-9.47
-11.08
-12.30
-13.01
-13.15
-12.75
-11.97
-10.99
-10.04
-9.25
-8.72
-8.48
-8.50
-8.69
-8.92
-9.05
-8.99
-8.74
-8.40
-8.05
-7.71
-7.31
-6.68
-5.74
-4.48
-3.02
-1.52
-0.13
1.04
1.91
2.39
2.39
1.85
0.76
-0.74
-2.42
-4.03
-5.38
-6.42
-7.18
-7.80
-8.34
-8.81
-9.15
-9.28
-9.18
-8.89
-8.54
-8.22
-7.95
-7.70
-7.36
-6.85
-6.17
-5.40
-4.65
-4.02
-3.51
-3.07
-2.62
-2.12
-1.61
-1.17
-0.86
-0.61
-0.29
0.28
1.19
2.35
3.54
4.51
5.08
5.25
5.14
4.92
4.67
4.40
4.05
3.58
2.98
2.30
1.56
0.77
-0.05
-0.87
-1.55
-1.98
-2.09
-1.90
-1.54
-1.17
-0.93
-0.85
-0.90
-0.98
-1.01
-0.94
-0.73
-0.37
0.18
0.91
1.76
2.66
3.49
4.15
4.61
4.85
4.89
4.68
4.18
3.32
2.08
0.49
-1.32
-3.17
-4.87
-6.26
-7.26
-7.84
-8.08
-8.07
-7.88
-7.56
-7.12
-6.55
-5.86
-5.11
-4.40
-3.79
-3.31
-2.87
-2.36
-1.70
-0.86
0.05
0.89
1.53
1.91
2.09
2.15
2.22
2.34
2.54
2.80
3.10
3.43
3.76
4.05
4.26
4.37
4.41
4.46
4.60
4.87
5.18
5.40
5.39
5.10
4.57
3.93
3.27
2.66
2.09
1.47
0.81
0.12
-0.54
-1.10
-1.51
-1.78
-1.94
-2.03
-2.09
-2.11
-2.09
-2.01
-1.86
-1.69
-1.56
-1.60
-1.90
-2.49
-3.31
-4.19
-4.93
-5.39
-5.52
-5.38
-5.11
-4.82
-4.57
-4.39
-4.25
-4.21
-4.31
-4.66
-5.29
-6.13
-7.05
-7.86
-8.38
-8.55
-8.41
-8.04
-7.56
-6.99
-6.27
-5.34
-4.14
-2.69
-1.12
0.39
1.71
2.78
3.65
4.42
5.18
6.00
6.86
7.67
8.34
8.77
8.89
8.67
8.12
7.27
6.23
5.10
4.03
3.12
2.45
2.00
1.69
1.43
1.16
0.86
0.52
0.20
-0.05
-0.16
-0.10
0.11
0.42
0.75
1.01
1.12
1.07
0.89
0.64
0.41
0.21
0.08
0.00
-0.05
-0.07
-0.07
0.01
0.18
0.47
0.86
1.30
1.73
2.13
2.52
2.91
3.27
3.51
3.54
3.30
2.90
2.51
2.34
2.48
2.82
3.13
3.09
2.51
1.37
-0.14
-1.73
-3.13
-4.19
-4.90
-5.29
-5.41
-5.31
-4.98
-4.44
-3.77
-3.10
-2.55
-2.19
-2.00
-1.89
-1.78
-1.62
-1.43
-1.32
-1.36
-1.61
-1.99
-2.35
-2.51
-2.30
-1.74
-0.93
-0.07
0.64
1.12
1.41
1.63
1.89
2.21
2.52
2.72
2.75
2.68
2.64
2.78
3.21
3.88
4.67
5.43
6.02
6.38
6.49
6.39
6.18
5.93
5.73
5.61
5.60
5.69
5.84
5.98
5.99
5.68
4.90
3.57
1.83
-0.02
-1.63
-2.71
-3.22
-3.29
-3.21
-3.22
-3.40
-3.70
-4.01
-4.23
-4.36
-4.41
-4.40
-4.36
-4.29
-4.20
-4.16
-4.21
-4.39
-4.62
-4.80
-4.80
-4.56
-4.13
-3.62
-3.24
-3.14
-3.36
-3.86
-4.47
-5.01
-5.33
-5.37
-5.12
-4.62
-3.90
-3.01
-2.01
-0.98
-0.03
0.71
1.17
1.34
1.29
1.16
1.08
1.11
1.26
1.44
1.58
1.60
1.51
1.35
1.21
1.20
1.40
1.81
2.36
2.93
3.41
3.75
4.01
4.36
4.91
5.70
6.60
7.42
8.02
8.40
8.69
9.07
9.63
10.32
10.96
11.39
11.58
11.65
11.80
12.25
13.09
14.35
15.94
17.71
19.45
20.98
22.14
22.91
23.51
24.29
25.69
27.96
31.10
34.73
38.32
41.42
43.88
45.94
48.17
51.16
55.30
60.59
66.57
72.52
77.71
81.71
84.62
87.23
90.84
96.92
106.33
118.60
131.47
141.09
142.91
132.97
109.16
72.06
25.09
-26.14
-75.07
-115.72
-144.06
-158.80
-161.36
-155.10
-144.00
-131.53
-119.87
-109.94
-101.80
-95.21
-89.89
-85.56
-81.68
-77.59
-72.65
-66.62
-59.89
-53.26
-47.63
-43.58
-41.02
-39.33
-37.62
-35.18
-31.78
-27.72
-23.63
-20.12
-17.50
-15.66
-14.20
-12.64
-10.70
-8.41
-6.06
-4.05
-2.73
-2.22
-2.43
-3.05
-3.69
-4.02
-3.80
-3.03
-1.83
-0.50
0.64
1.33
1.45
1.08
0.39
-0.36
-0.95
-1.25
-1.25
-0.99
-0.60
-0.18
0.17
0.39
0.46
0.39
0.24
0.06
-0.07
-0.13
-0.09
0.03
0.26
0.60
1.06
1.60
2.16
2.60
2.85
2.89
2.78
2.63
2.56
2.63
2.86
3.22
3.66
4.10
4.45
4.60
4.46
4.02
3.33
2.53
1.77
1.17
0.74
0.47
0.33
0.35
0.57
1.00
1.56
2.08
2.37
2.32
1.94
1.38
0.81
0.36
0.03
-0.25
-0.59
-1.05
-1.62
-2.27
-2.94
-3.58
-4.16
-4.64
-4.96
-5.11
-5.12
-5.04
-4.94
-4.82
-4.61
-4.26
-3.76
-3.17
-2.63
-2.26
-2.10
-2.13
-2.22
-2.27
-2.20
-2.00
-1.69
-1.33
-0.92
-0.50
-0.09
0.26
0.51
0.66
0.73
0.76
0.81
0.90
1.05
1.23
1.41
1.54
1.58
1.49
1.24
0.85
0.37
-0.14
-0.61
-0.98
-1.27
-1.47
-1.63
-1.76
-1.89
-2.05
-2.22
-2.43
-2.61
-2.72
-2.72
-2.59
-2.34
-2.07
-1.86
-1.79
-1.86
-2.08
-2.36
-2.65
-2.87
-2.96
-2.90
-2.68
-2.34
-1.98
-1.67
-1.46
-1.35
-1.28
-1.14
-0.86
-0.41
0.17
0.75
1.21
1.46
1.48
1.37
1.28
1.33
1.60
2.02
2.38
2.46
2.09
1.27
0.18
-0.90
-1.71
-2.07
-1.96
-1.51
-0.86
-0.17
0.45
0.90
1.16
1.19
1.02
0.73
0.43
0.21
0.13
0.18
0.29
0.40
0.46
0.47
0.49
0.53
0.60
0.64
0.65
0.62
0.62
0.66
0.76
0.83
0.83
0.69
0.45
0.18
-0.06
-0.23
-0.33
-0.38
-0.38
-0.33
-0.23
-0.09
0.05
0.16
0.18
0.12
0.00
-0.15
-0.33
-0.52
-0.72
-0.91
-1.06
-1.18
-1.26
-1.31
-1.30
-1.22
-1.05
-0.79
-0.48
-0.22
-0.07
-0.06
-0.21
-0.45
-0.72
-0.97
-1.18
-1.30
-1.30
-1.15
-0.86
-0.53
-0.31
-0.34
-0.64
-1.16
-1.74
-2.22
-2.52
-2.67
-2.76
-2.86
-3.06
-3.36
-3.74
-4.16
-4.57
-4.95
-5.28
-5.63
-6.08
-6.70
-7.51
-8.39
-9.23
-9.89
-10.35
-10.72
-11.18
-11.89
-12.88
-14.12
-15.49
-16.93
-18.43
-19.93
-21.32
-22.41
-23.02
-23.13
-22.85
-22.38
-21.78
-20.81
-18.93
-15.59
-10.58
-4.27
2.36
8.05
11.69
12.70
11.13
7.49
2.49
-3.17
-8.94
-14.37
-19.11
-22.90
-25.66
-27.48
-28.63
-29.54
-30.58
-32.04
-34.06
-36.57
-39.26
-41.61
-42.96
-42.71
-40.44
-36.11
-30.02
-22.81
-15.16
-7.77
-1.22
4.11
8.00
10.51
12.04
13.23
14.75
17.23
21.18
27.10
35.33
45.65
56.84
66.51
71.46
68.66
56.45
35.19
7.08
-24.71
-57.00
-86.96
-112.02
-129.66
-137.72
-135.24
-123.42
-105.74
-87.10
-72.08
-63.34
-60.94
-63.00
-67.01
-71.47
-76.64
-84.13
-95.54
-110.92
-127.82
-141.63
-147.08
-140.11
-119.19
-85.61
-42.58
6.02
56.35
104.76
147.46
180.70
201.44
208.54
203.45
190.01
173.04
156.65
143.15
132.85
124.84
117.88
111.11
104.17
97.04
89.82
82.59
75.52
68.79
62.62
57.22
52.64
48.74
45.28
41.97
38.58
35.04
31.38
27.76
24.37
21.35
18.77
16.62
14.78
13.09
11.41
9.67
7.88
6.14
4.59
3.30
2.31
1.56
1.01
0.55
0.14
-0.29
-0.81
-1.41
-2.08
-2.67
-3.04
-3.07
-2.74
-2.19
-1.59
-1.11
-0.79
-0.61
-0.48
-0.36
-0.23
-0.15
-0.14
-0.16
-0.19
-0.21
-0.22
-0.29
-0.46
-0.70
-0.93
-1.03
-0.97
-0.75
-0.49
-0.33
-0.34
-0.53
-0.83
-1.14
-1.40
-1.61
-1.77
-1.91
-2.02
-2.06
-1.98
-1.76
-1.43
-1.05
-0.73
-0.54
-0.53
-0.69
-0.96
-1.23
-1.41
-1.46
-1.41
-1.31
-1.23
-1.19
-1.14
-1.00
-0.75
-0.42
-0.14
0.03
0.06
0.01
0.01
0.12
0.31
0.46
0.48
0.33
0.05
-0.22
-0.36
-0.33
-0.17
0.07
0.31
0.51
0.64
0.70
0.63
0.44
0.13
-0.24
-0.57
-0.81
-0.97
-1.10
-1.28
-1.51
-1.77
-1.95
-1.96
-1.77
-1.45
-1.14
-0.93
-0.88
-0.95
-1.03
-1.06
-1.00
-0.88
-0.71
-0.52
-0.25
0.10
0.53
0.98
1.34
1.51
1.47
1.29
1.09
0.97
0.99
1.10
1.20
1.20
1.07
0.84
0.61
0.46
0.39
0.33
0.23
0.04
-0.19
-0.37
-0.42
-0.32
-0.12
0.04
0.06
-0.10
-0.40
-0.69
-0.85
-0.79
-0.54
-0.20
0.07
0.14
-0.02
-0.32
-0.62
-0.76
-0.66
-0.34
0.09
0.51
0.82
0.94
0.91
0.77
0.58
0.40
0.23
0.05
-0.18
-0.45
-0.72
-0.93
-1.00
-0.89
-0.64
-0.34
-0.14
-0.12
-0.27
-0.50
-0.70
-0.79
-0.76
-0.71
-0.70
-0.79
-0.93
-1.01
-0.95
-0.70
-0.32
0.08
0.42
0.65
0.79
0.87
0.94
1.00
1.07
1.16
1.29
1.44
1.59
1.67
1.62
1.42
1.10
0.75
0.44
0.23
0.15
0.18
0.27
0.36
0.37
0.26
0.03
-0.29
-0.62
-0.88
-1.03
-1.07
-1.05
-1.01
-0.96
-0.86
-0.67
-0.42
-0.18
-0.07
-0.16
-0.48
-0.92
-1.34
-1.59
-1.62
-1.44
-1.14
-0.80
-0.51
-0.24
-0.00
0.23
0.45
0.66
0.87
1.08
1.26
1.33
1.25
0.98
0.56
0.13
-0.15
-0.18
0.04
0.38
0.66
0.73
0.54
0.18
-0.18
-0.39
-0.39
-0.22
0.01
0.18
0.23
0.18
0.10
0.05
0.07
0.13
0.16
0.12
-0.02
-0.20
-0.35
-0.40
-0.35
-0.21
-0.06
0.06
0.13
0.16
0.20
0.25
0.34
0.44
0.55
0.66
0.76
0.81
0.79
0.65
0.39
0.08
-0.20
-0.36
-0.37
-0.28
-0.19
-0.22
-0.38
-0.62
-0.83
-0.95
-0.96
-0.91
-0.89
-0.92
-0.93
-0.85
-0.61
-0.25
0.11
0.35
0.38
0.24
0.05
-0.11
-0.18
-0.19
-0.20
-0.24
-0.28
-0.27
-0.17
0.01
0.21
0.38
0.47
0.50
0.48
0.44
0.37
0.29
0.24
0.28
0.44
0.69
0.93
1.04
0.97
0.76
0.49
0.27
0.14
0.09
0.07
-0.01
-0.16
-0.35
-0.54
-0.65
-0.63
-0.48
-0.22
0.08
0.35
0.48
0.44
0.20
-0.17
-0.55
-0.82
-0.90
-0.74
-0.41
-0.02
0.29
0.43
0.38
0.18
-0.06
-0.26
-0.34
-0.31
-0.22
-0.12
-0.06
-0.02
0.02
0.11
0.26
0.44
0.59
0.66
0.65
0.60
0.58
0.62
0.72
0.79
0.75
0.54
0.18
-0.26
-0.68
-0.97
-1.08
-1.00
-0.77
-0.47
-0.18
0.01
0.10
0.09
0.02
-0.07
-0.18
-0.30
-0.42
-0.52
-0.58
-0.57
-0.50
-0.38
-0.23
-0.07
0.09
0.23
0.34
0.42
0.44
0.42
0.38
0.32
0.25
0.15
0.03
-0.07
-0.10
0.01
0.25
0.55
0.83
0.99
1.02
0.93
0.80
0.67
0.58
0.49
0.40
0.33
0.32
0.43
0.70
1.11
1.59
2.07
2.47
2.74
2.86
2.82
2.68
2.54
2.50
2.64
2.95
3.32
3.62
3.80
3.89
4.05
4.46
5.23
6.32
7.56
8.70
9.50
9.85
9.68
9.01
7.88
6.35
4.56
2.74
1.17
0.09
-0.42
-0.42
-0.11
0.34
0.83
1.39
2.02
2.58
2.75
2.07
0.25
-2.64
-6.23
-9.92
-13.20
-15.84
-17.91
-19.66
-21.27
-22.76
-23.97
-24.66
-24.59
-23.57
-21.49
-18.31
-14.13
-9.25
-4.17
0.50
4.18
6.49
7.41
7.22
6.44
5.57
4.91
4.49
4.12
3.62
2.92
2.18
1.70
1.78
2.58
4.01
5.79
7.56
8.93
9.67
9.76
9.42
9.12
9.50
11.12
14.28
18.85
24.32
29.85
34.40
36.81
35.93
30.86
21.36
8.18
-6.91
-21.57
-33.62
-41.78
-46.06
-47.52
-47.69
-47.81
-48.48
-49.63
-50.82
-51.62
-51.73
-51.04
-49.56
-47.29
-44.19
-40.02
-34.38
-26.85
-17.26
-5.99
5.99
17.29
26.66
33.43
37.85
40.90
43.93
48.01
53.48
59.86
66.03
70.66
72.84
72.31
69.51
65.39
61.30
58.96
60.49
68.00
82.50
102.68
124.25
140.75
145.97
136.91
115.68
88.93
64.85
49.04
41.83
38.26
30.79
12.90
-18.47
-62.59
-116.41
-176.11
-237.91
-297.69
-350.55
-390.77
-413.11
-414.56
-395.48
-359.74
-313.45
-263.08
-213.73
-168.22
-126.95
-88.34
-49.54
-7.21
41.57
98.44
162.80
231.36
298.28
356.10
397.64
417.85
415.33
392.45
354.32
306.87
255.03
201.73
147.83
92.79
35.68
-24.00
-85.55
-146.82
-204.46
-254.75
-294.96
-324.42
-344.65
-358.41
-368.07
-374.08
-374.79
-367.61
-350.76
-324.60
-291.63
-255.30
-218.30
-181.81
-145.63
-109.17
-72.55
-36.50
-1.37
34.22
73.62
120.56
176.05
235.65
289.15
323.57
328.32
300.19
245.38
177.58
113.24
66.38
45.52
52.97
85.81
136.93
195.79
249.73
286.42
297.62
282.41
248.16
207.87
174.82
157.43
156.09
163.92
170.36
165.55
143.79
104.99
53.89
-1.87
-54.12
-96.23
-124.54
-138.70
-141.05
-135.37
-125.54
-114.69
-104.81
-96.83
-90.99
-87.01
-84.41
-82.83
-82.44
-84.01
-88.60
-96.50
-106.27
-114.32
-115.47
-104.13
-75.92
-29.19
33.89
106.89
179.79
240.93
279.90
290.61
273.07
233.10
179.64
121.09
62.50
5.25
-51.12
-106.33
-157.80
-201.18
-232.24
-248.52
-249.77
-237.10
-211.87
-175.60
-130.81
-82.04
-35.85
0.66
22.38
28.06
20.48
4.99
-12.95
-29.47
-42.78
-52.44
-58.76
-62.24
-63.63
-63.66
-62.65
-59.98
-54.14
-43.64
-28.13
-8.64
13.25
36.80
62.80
92.90
127.62
164.76
199.42
226.03
241.21
245.50
242.89
238.42
235.50
234.49
233.39
229.65
221.56
208.70
191.35
169.64
143.28
112.06
76.31
37.39
-2.53
-40.81
-74.89
-102.68
-122.91
-135.40
-141.19
-142.34
-141.24
-139.84
-139.03
-138.52
-137.29
-134.30
-129.20
-122.42
-114.94
-107.78
-101.60
-96.50
-92.03
-87.55
-82.49
-76.60
-70.08
-63.51
-57.74
-53.59
-51.62
-51.92
-54.07
-57.23
-60.41
-62.82
-64.17
-64.82
-65.63
-67.62
-71.47
-77.11
-83.75
-90.15
-95.21
-98.65
-101.19
-104.42
-110.34
-120.65
-136.16
-156.24
-178.69
-199.84
-215.39
-221.57
-216.23
-199.51
-173.57
-141.55
-106.34
-69.58
-31.50
8.63
51.52
96.93
143.29
187.65
226.52
256.87
277.02
287.21
289.53
287.11
282.79
278.08
272.72
265.34
254.64
240.54
224.51
208.98
196.20
187.30
182.25
180.45
181.76
187.05
198.05
216.18
241.10
269.80
296.86
316.09
322.64
314.89
294.85
267.10
236.84
207.68
180.68
154.63
127.52
98.03
66.31
33.76
2.02
-28.15
-57.29
-86.90
-118.92
-155.22
-197.17
-245.11
-297.64
-351.19
-400.05
-437.43
-457.10
-455.22
-431.37
-388.68
-332.85
-270.59
-208.32
-151.17
-102.70
-64.89
-38.25
-21.99
-14.05
-11.38
-10.41
-7.80
-1.26
9.75
23.87
38.36
50.41
58.34
62.20
63.46
64.02
64.98
66.22
66.64
65.02
60.95
55.28
49.78
46.22
45.27
45.92
45.81
42.40
34.36
22.39
9.09
-2.23
-9.15
-10.99
-8.87
-4.72
-0.03
4.76
9.93
15.32
19.31
19.01
11.52
-4.20
-26.17
-49.82
-69.71
-81.81
-85.08
-81.45
-74.40
-67.07
-61.02
-56.19
-51.84
-47.50
-43.34
-39.70
-36.43
-32.54
-26.64
-17.81
-6.33
6.22
17.34
24.57
26.37
22.63
14.78
5.30
-3.03
-8.04
-8.85
-6.09
-1.64
2.21
3.71
2.36
-0.99
-4.50
-6.21
-5.04
-1.54
1.88
1.23
-8.14
-30.19
-66.80
-116.89
-176.41
-239.09
-297.89
-346.39
-379.88
-395.96
-394.50
-377.15
-346.65
-306.24
-259.42
-210.17
-163.34
-124.62
-99.66
-92.17
-101.98
-124.13
-149.95
-169.90
-176.96
-168.94
-148.51
-121.03
-91.63
-63.23
-36.08
-8.97
19.25
48.76
79.07
109.98
142.14
176.61
213.62
251.37
285.82
311.93
325.57
325.39
313.37
293.94
272.16
251.87
234.86
221.00
209.22
198.44
188.07
178.03
168.42
159.31
150.65
142.35
134.41
126.96
120.35
114.97
111.18
109.16
108.70
109.26
110.07
110.52
110.45
110.35
111.16
113.89
119.09
126.56
135.54
145.11
154.81
164.84
175.75
187.73
200.32
212.51
223.41
232.77
240.91
248.11
253.85
256.53
254.09
245.02
229.31
208.48
184.79
160.13
135.33
110.28
84.56
58.17
31.64
5.63
-19.69
-44.91
-71.35
-100.66
-134.15
-172.21
-213.51
-254.94
-291.96
-319.82
-335.11
-336.92
-327.18
-309.76
-288.94
-267.87
-247.94
-229.08
-210.70
-192.63
-175.45
-160.15
-147.50
-137.51
-129.47
-122.32
-115.30
-108.17
-101.31
-95.24
-90.14
-85.54
-80.43
-73.72
-64.82
-54.05
-42.55
-31.92
-23.56
-18.24
-15.94
-15.99
-17.41
-19.23
-20.77
-21.65
-21.78
-21.27
-20.32
-19.34
-18.79
-19.22
-21.01
-24.23
-28.54
-33.32
-38.00
-42.34
-46.57
-51.14
-56.23
-61.40
-65.63
-67.73
-66.92
-63.23
-57.42
-50.55
-43.43
-36.53
-30.23
-25.16
-21.97
-20.54
-19.13
-14.26
-2.03
19.81
50.00
83.64
113.85
134.74
143.80
142.56
135.29
126.58
119.36
114.47
111.36
109.27
107.59
105.59
101.89
94.67
82.69
66.40
48.31
32.19
21.39
17.32
19.04
24.05
29.77
34.82
39.26
43.79
48.67
53.07
55.36
54.01
48.36
38.79
26.19
11.35
-5.33
-23.55
-42.50
-60.54
-75.48
-85.48
-89.86
-89.37
-85.75
-80.80
-75.55
-70.13
-64.20
-57.64
-50.92
-44.80
-39.77
-35.55
-31.05
-24.83
-16.01
-4.87
7.04
17.45
24.33
26.76
25.25
21.50
17.54
14.95
14.35
15.50
17.73
20.45
23.25
25.80
27.47
27.28
24.25
17.99
9.12
-0.73
-9.52
-15.66
-18.76
-19.66
-20.05
-21.53
-24.95
-30.11
-36.00
-41.30
-45.01
-46.75
-46.76
-45.76
-44.52
-43.57
-43.03
-42.61
-41.87
-40.52
-38.67
-36.85
-35.78
-36.04
-37.75
-40.53
-43.61
-46.17
-47.69
-48.11
-47.82
-47.39
-47.25
-47.55
-48.26
-49.41
-50.99
-52.42
-52.03
-46.98
-34.27
-12.36
17.37
50.42
80.61
102.58
114.01
116.28
113.19
108.80
105.43
103.24
101.21
98.65
96.08
95.04
96.93
101.97
108.81
115.08
118.61
118.47
115.56
112.36
112.07
117.29
128.91
145.35
162.67
175.56
178.86
169.04
144.98
108.03
61.45
9.72
-42.16
-89.27
-127.35
-153.54
-166.96
-168.91
-162.46
-151.47
-139.43
-128.68
-120.25
-114.10
-109.70
-106.28
-103.07
-99.31
-94.42
-88.15
-80.76
-72.81
-64.93
-57.61
-51.02
-45.07
-39.54
-34.24
-29.05
-24.00
-19.22
-14.94
-11.44
-8.98
-7.67
-7.39
-7.70
-7.90
-7.24
-5.22
-1.81
2.49
6.83
10.43
12.80
13.98
14.37
14.48
14.66
14.88
14.89
14.38
13.29
11.81
10.36
9.29
8.80
8.82
9.15
9.71
10.58
11.99
14.16
17.11
20.61
24.25
27.67
30.71
33.39
35.78
37.82
39.12
38.97
36.62
31.61
24.08
14.82
5.11
-3.72
-10.74
-15.67
-18.79
-20.68
-21.81
-22.41
-22.47
-21.97
-21.08
-20.18
-19.64
-19.63
-20.05
-20.51
-20.62
-20.11
-18.98
-17.36
-15.54
-13.78
-12.28
-11.19
-10.50
-10.06
-9.58
-8.74
-7.31
-5.29
-2.95
-0.76
0.81
1.45
1.10
-0.04
-1.65
-3.42
-5.14
-6.69
-8.05
-9.21
-10.11
-10.69
-10.93
-10.90
-10.78
-10.78
-11.03
-11.56
-12.24
-12.86
-13.29
-13.46
-13.47
-13.47
-13.57
-13.77
-13.94
-13.93
-13.61
-13.00
-12.22
-11.43
-10.79
-10.34
-10.06
-9.81
-9.48
-8.96
-8.22
-7.28
-6.24
-5.23
-4.39
-3.80
-3.51
-3.47
-3.55
-3.59
-3.42
-2.95
-2.20
-1.32
-0.50
0.10
0.42
0.54
0.61
0.77
1.05
1.34
1.50
1.40
0.99
0.29
-0.65
-1.75
-2.82
-3.46
-3.13
-1.24
2.49
7.80
13.85
19.46
23.53
25.43
25.22
23.46
20.87
17.96
14.89
11.52
7.71
3.55
-0.57
-4.13
-6.68
-8.13
-8.84
-9.40
-10.48
-12.46
-15.30
-18.56
-21.55
-23.59
-24.32
-23.81
-22.60
-21.51
-21.34
-22.58
-25.16
-28.55
-31.95
-34.76
-36.89
-38.77
-41.07
-44.30
-48.46
-53.06
-57.42
-61.03
-63.79
-66.09
-68.59
-72.06
-77.30
-84.98
-95.48
-108.26
-121.35
-131.11
-132.93
-122.65
-98.43
-61.97
-18.38
25.26
62.26
88.31
102.27
105.72
101.58
92.78
81.58
69.78
59.20
51.91
49.88
54.13
64.05
77.29
90.47
100.35
105.01
104.26
99.38
92.27
84.49
76.75
69.03
61.04
52.81
44.85
37.94
32.63
28.87
25.95
22.74
18.18
11.75
3.68
-5.14
-13.55
-20.51
-25.41
-28.14
-28.92
-28.04
-25.67
-21.80
-16.41
-9.69
-2.27
4.77
9.99
11.96
9.73
3.20
-6.71
-18.20
-29.00
-36.89
-40.24
-38.33
-31.59
-21.45
-10.03
0.33
7.60
10.37
8.02
0.60
-11.44
-27.41
-46.40
-67.06
-87.44
-105.15
-117.93
-124.51
-125.42
-123.14
-121.53
-124.55
-134.54
-150.94
-169.89
-185.36
-191.11
-183.09
-160.87
-127.46
-87.89
-46.94
-7.36
30.60
68.51
108.68
153.22
203.42
259.20
318.41
376.39
426.17
460.12
472.33
460.88
428.62
381.80
327.45
270.70
213.77
156.90
100.36
46.02
-2.68
-42.16
-70.55
-88.65
-99.31
-105.83
-110.37
-113.27
-113.44
-109.73
-102.11
-92.03
-81.93
-74.11
-69.71
-68.36
-68.48
-68.16
-66.07
-61.91
-56.46
-51.02
-46.74
-44.09
-42.71
-41.70
-40.16
-37.63
-34.25
-30.58
-27.24
-24.66
-22.85
-21.55
-20.34
-18.82
-16.81
-14.34
-11.66
-9.05
-6.73
-4.79
-3.16
-1.74
-0.48
0.59
1.43
2.00
2.36
2.60
2.80
2.98
3.09
3.10
3.03
2.95
2.97
3.14
3.45
3.85
4.25
4.58
4.74
4.64
4.23
3.53
2.67
1.86
1.28
1.03
1.02
1.08
1.03
0.78
0.36
-0.17
-0.70
-1.17
-1.56
-1.85
-2.00
-1.96
-1.70
-1.25
-0.70
-0.18
0.20
0.39
0.38
0.25
0.10
0.04
0.09
0.21
0.29
0.20
-0.12
-0.64
-1.24
-1.78
-2.14
-2.29
-2.26
-2.10
-1.89
-1.63
-1.34
-1.00
-0.63
-0.25
0.04
0.17
0.08
-0.24
-0.68
-1.09
-1.35
-1.37
-1.20
-0.93
-0.66
-0.44
-0.24
-0.02
0.26
0.57
0.86
1.11
1.33
1.58
1.94
2.40
2.92
3.37
3.64
3.69
3.55
3.31
3.07
2.88
2.77
2.70
2.68
2.70
2.78
2.89
3.04
3.17
3.27
3.34
3.38
3.38
3.30
3.07
2.65
2.10
1.58
1.32
1.49
2.14
3.10
4.09
4.81
5.08
4.90
4.44
3.88
3.39
3.01
2.74
2.54
2.37
2.17
1.83
1.20
0.17
-1.25
-2.91
-4.53
-5.83
-6.61
-6.85
-6.66
-6.21
-5.59
-4.81
-3.83
-2.66
-1.44
-0.39
0.19
0.16
-0.44
-1.39
-2.33
-2.97
-3.18
-3.02
-2.62
-2.13
-1.58
-0.98
-0.33
0.31
0.79
1.00
0.89
0.56
0.15
-0.19
-0.34
-0.26
0.11
0.78
1.72
2.79
3.71
4.21
4.12
3.49
2.56
1.67
1.00
0.51
-0.02
-0.87
-2.12
-3.61
-5.00
-5.96
-6.28
-6.03
-5.43
-4.78
-4.26
-3.93
-3.72
-3.50
-3.21
-2.87
-2.55
-2.34
-2.27
-2.33
-2.42
-2.46
-2.38
-2.18
-1.93
-1.75
-1.79
-2.09
-2.58
-3.07
-3.36
-3.26
-2.79
-2.08
-1.38
-0.91
-0.73
-0.80
-0.95
-1.05
-1.04
-0.95
-0.84
-0.71
-0.57
-0.36
-0.10
0.17
0.37
0.45
0.43
0.38
0.41
0.53
0.69
0.78
0.74
0.59
0.41
0.31
0.34
0.47
0.59
0.62
0.54
0.40
0.29
0.26
0.29
0.30
0.24
0.10
-0.03
-0.07
0.02
0.19
0.30
0.23
-0.06
-0.47
-0.86
-1.08
-1.09
-0.98
-0.88
-0.88
-0.97
-1.07
-1.07
-0.94
-0.70
-0.46
-0.28
-0.16
-0.04
0.13
0.36
0.57
0.67
0.60
0.37
0.08
-0.18
-0.30
-0.26
-0.07
0.20
0.48
0.69
0.81
0.83
0.76
0.62
0.40
0.11
-0.23
-0.56
-0.80
-0.84
-0.65
-0.24
0.26
0.71
0.97
1.00
0.83
0.56
0.32
0.19
0.15
0.17
0.17
0.12
0.05
0.01
0.04
0.14
0.26
0.32
0.28
0.18
0.09
0.06
0.10
0.19
0.26
0.32
0.39
0.52
0.74
1.01
1.26
1.42
1.47
1.44
1.40
1.39
1.43
1.50
1.54
1.52
1.43
1.34
1.27
1.28
1.34
1.37
1.30
1.05
0.65
0.16
-0.34
-0.81
-1.22
-1.62
-2.01
-2.36
-2.63
-2.73
-2.63
-2.35
-1.96
-1.55
-1.17
-0.88
-0.70
-0.63
-0.63
-0.66
-0.67
-0.64
-0.57
-0.50
-0.49
-0.59
-0.80
-1.07
-1.30
-1.42
-1.38
-1.18
-0.89
-0.58
-0.30
-0.06
0.13
0.26
0.30
0.24
0.10
-0.04
-0.11
-0.03
0.16
0.37
0.47
0.40
0.15
-0.21
-0.60
-0.90
-1.05
-0.96
-0.63
-0.09
0.55
1.11
1.45
1.51
1.30
0.93
0.51
0.12
-0.18
-0.34
-0.33
-0.17
0.06
0.23
0.20
-0.07
-0.54
-1.05
-1.43
-1.57
-1.48
-1.25
-0.98
-0.77
-0.63
-0.55
-0.50
-0.46
-0.41
-0.36
-0.31
-0.27
-0.23
-0.20
-0.19
-0.23
-0.33
-0.47
-0.57
-0.55
-0.34
0.06
0.56
1.04
1.39
1.53
1.47
1.30
1.10
0.92
0.79
0.67
0.53
0.36
0.17
0.03
-0.04
-0.01
0.08
0.15
0.16
0.09
-0.01
-0.06
-0.00
0.17
0.40
0.59
0.68
0.65
0.53
0.39
0.28
0.21
0.14
0.01
-0.24
-0.59
-0.95
-1.18
-1.20
-0.97
-0.59
-0.17
0.19
0.44
0.63
0.78
0.89
0.89
0.73
0.40
-0.03
-0.42
-0.67
-0.72
-0.62
-0.47
-0.39
-0.44
-0.58
-0.71
-0.73
-0.56
-0.25
0.08
0.27
0.19
-0.15
-0.64
-1.10
-1.37
-1.36
-1.15
-0.82
-0.48
-0.19
0.10
0.43
0.84
1.28
1.64
1.80
1.73
1.49
1.21
1.04
1.01
1.07
1.10
1.01
0.81
0.64
0.63
0.81
1.09
1.28
1.23
0.92
0.48
0.12
-0.02
0.09
0.34
0.54
0.55
0.33
-0.03
-0.37
-0.55
-0.55
-0.42
-0.31
-0.34
-0.56
-0.88
-1.16
-1.27
-1.15
-0.86
-0.56
-0.38
-0.38
-0.51
-0.64
-0.63
-0.44
-0.11
0.22
0.43
0.45
0.27
-0.02
-0.30
-0.51
-0.63
-0.66
-0.65
-0.58
-0.44
-0.25
-0.04
0.13
0.22
0.22
0.18
0.20
0.33
0.59
0.89
1.13
1.20
1.09
0.86
0.61
0.46
0.48
0.65
0.87
1.02
1.01
0.82
0.47
0.05
-0.36
-0.70
-0.95
-1.07
-1.03
-0.83
-0.54
-0.27
-0.15
-0.25
-0.52
-0.81
-0.95
-0.85
-0.60
-0.34
-0.25
-0.41
-0.75
-1.11
-1.32
-1.29
-1.05
-0.71
-0.38
-0.09
0.16
0.43
0.72
0.97
1.11
1.08
0.88
0.60
0.38
0.29
0.34
0.43
0.43
0.27
-0.04
-0.37
-0.57
-0.55
-0.32
-0.00
0.22
0.25
0.07
-0.22
-0.45
-0.54
-0.42
-0.15
0.19
0.53
0.81
0.98
1.02
0.92
0.70
0.42
0.17
0.06
0.11
0.28
0.48
0.59
0.58
0.43
0.17
-0.16
-0.52
-0.87
-1.17
-1.35
-1.41
-1.36
-1.25
-1.16
-1.11
-1.06
-0.97
-0.78
-0.50
-0.17
0.15
0.39
0.52
0.51
0.37
0.15
-0.08
-0.23
-0.22
-0.00
0.35
0.71
0.96
1.03
0.96
0.84
0.81
0.88
1.01
1.05
0.92
0.59
0.17
-0.18
-0.37
-0.38
-0.32
-0.29
-0.38
-0.52
-0.61
-0.53
-0.27
0.08
0.37
0.49
0.38
0.12
-0.18
-0.41
-0.54
-0.55
-0.50
-0.43
-0.37
-0.35
-0.35
-0.37
-0.36
-0.31
-0.20
-0.04
0.13
0.25
0.29
0.27
0.21
0.14
0.08
0.02
-0.07
-0.20
-0.34
-0.44
-0.42
-0.27
-0.02
0.25
0.41
0.41
0.27
0.06
-0.13
-0.22
-0.20
-0.12
-0.09
-0.15
-0.33
-0.59
-0.84
-0.99
-1.02
-0.91
-0.71
-0.46
-0.20
0.06
0.32
0.57
0.80
0.99
1.14
1.28
1.43
1.62
1.84
2.01
2.02
1.79
1.27
0.55
-0.20
-0.79
-1.07
-1.03
-0.80
-0.57
-0.48
-0.58
-0.77
-0.92
-0.94
-0.85
-0.72
-0.66
-0.69
-0.72
-0.67
-0.47
-0.16
0.14
0.31
0.34
0.28
0.27
0.40
0.65
0.92
1.08
1.05
0.87
0.63
0.46
0.40
0.43
0.48
0.44
0.28
0.02
-0.25
-0.44
-0.47
-0.34
-0.13
0.05
0.10
-0.02
-0.25
-0.48
-0.58
-0.51
-0.29
-0.02
0.18
0.24
0.15
-0.04
-0.25
-0.42
-0.52
-0.57
-0.60
-0.63
-0.68
-0.72
-0.71
-0.64
-0.50
-0.32
-0.14
0.02
0.15
0.26
0.38
0.52
0.65
0.75
0.78
0.71
0.55
0.34
0.16
0.09
0.15
0.32
0.51
0.65
0.68
0.58
0.39
0.17
-0.05
-0.25
-0.39
-0.46
-0.42
-0.31
-0.20
-0.21
-0.41
-0.76
-1.10
-1.25
-1.07
-0.59
-0.01
0.44
0.57
0.37
-0.05
-0.51
-0.88
-1.10
-1.17
-1.11
-0.89
-0.48
0.08
0.70
1.22
1.50
1.49
1.28
1.01
0.84
0.81
0.87
0.91
0.84
0.67
0.46
0.32
0.27
0.30
0.29
0.17
-0.06
-0.35
-0.59
-0.72
-0.71
-0.60
-0.46
-0.31
-0.16
-0.01
0.13
0.23
0.25
0.13
-0.10
-0.41
-0.69
-0.86
-0.86
-0.68
-0.38
-0.02
0.31
0.55
0.62
0.51
0.27
-0.04
-0.28
-0.36
-0.28
-0.14
-0.05
-0.14
-0.41
-0.76
-1.07
-1.22
-1.21
-1.08
-0.94
-0.79
-0.60
-0.31
0.12
0.66
1.17
1.52
1.58
1.33
0.81
0.17
-0.45
-0.94
-1.24
-1.31
-1.20
-0.92
-0.55
-0.16
0.14
0.27
0.21
0.01
-0.19
-0.29
-0.24
-0.09
0.08
0.23
0.35
0.51
0.76
1.11
1.46
1.69
1.69
1.46
1.08
0.69
0.42
0.31
0.33
0.41
0.47
0.45
0.37
0.27
0.21
0.18
0.17
0.13
0.08
0.05
0.07
0.17
0.28
0.33
0.25
0.04
-0.22
-0.45
-0.57
-0.56
-0.50
-0.43
-0.42
-0.45
-0.51
-0.57
-0.61
-0.65
-0.67
-0.69
-0.65
-0.55
-0.36
-0.10
0.17
0.37
0.42
0.29
0.02
-0.27
-0.44
-0.42
-0.20
0.10
0.35
0.44
0.34
0.12
-0.12
-0.28
-0.29
-0.20
-0.05
0.08
0.15
0.17
0.17
0.20
0.28
0.35
0.33
0.17
-0.13
-0.49
-0.76
-0.88
-0.84
-0.71
-0.59
-0.51
-0.46
-0.38
-0.24
-0.04
0.16
0.29
0.30
0.20
0.04
-0.12
-0.24
-0.30
-0.30
-0.26
-0.20
-0.13
-0.07
0.01
0.12
0.29
0.50
0.71
0.85
0.89
0.84
0.75
0.66
0.59
0.52
0.45
0.38
0.32
0.31
0.33
0.30
0.14
-0.21
-0.70
-1.21
-1.56
-1.61
-1.35
-0.87
-0.32
0.18
0.54
0.81
0.99
1.10
1.10
0.95
0.67
0.31
-0.02
-0.23
-0.31
-0.31
-0.34
-0.43
-0.59
-0.77
-0.87
-0.86
-0.72
-0.49
-0.25
-0.07
0.02
0.07
0.11
0.21
0.33
0.42
0.40
0.24
0.00
-0.20
-0.24
-0.06
0.29
0.66
0.89
0.88
0.65
0.32
0.03
-0.12
-0.11
-0.00
0.13
0.22
0.25
0.25
0.21
0.10
-0.13
-0.49
-0.92
-1.30
-1.46
-1.31
-0.89
-0.34
0.15
0.42
0.45
0.33
0.19
0.10
0.08
0.06
-0.01
-0.13
-0.25
-0.29
-0.23
-0.15
-0.12
-0.21
-0.38
-0.54
-0.56
-0.37
-0.01
0.39
0.69
0.79
0.71
0.53
0.34
0.22
0.19
0.23
0.29
0.37
0.46
0.54
0.63
0.72
0.84
0.99
1.15
1.30
1.39
1.39
1.29
1.14
0.96
0.80
0.66
0.52
0.34
0.10
-0.18
-0.45
-0.65
-0.72
-0.69
-0.61
-0.56
-0.62
-0.78
-0.98
-1.15
-1.19
-1.11
-0.95
-0.75
-0.53
-0.30
-0.03
0.23
0.45
0.58
0.61
0.58
0.53
0.48
0.44
0.36
0.22
-0.00
-0.27
-0.57
-0.84
-1.08
-1.28
-1.46
-1.60
-1.69
-1.70
-1.58
-1.33
-0.96
-0.50
-0.05
0.32
0.55
0.65
0.65
0.58
0.47
0.29
0.06
-0.22
-0.47
-0.61
-0.56
-0.32
0.07
0.48
0.77
0.85
0.70
0.43
0.18
0.11
0.24
0.52
0.79
0.90
0.80
0.54
0.22
-0.06
-0.27
-0.44
-0.60
-0.74
-0.79
-0.68
-0.37
0.05
0.46
0.71
0.72
0.53
0.22
-0.05
-0.21
-0.26
-0.26
-0.26
-0.29
-0.32
-0.27
-0.10
0.15
0.41
0.59
0.65
0.61
0.52
0.43
0.36
0.30
0.21
0.06
-0.12
-0.29
-0.38
-0.36
-0.24
-0.06
0.06
0.05
-0.11
-0.35
-0.53
-0.54
-0.33
0.05
0.46
0.77
0.89
0.85
0.72
0.60
0.50
0.42
0.29
0.08
-0.20
-0.48
-0.69
-0.78
-0.71
-0.52
-0.26
-0.00
0.20
0.33
0.42
0.49
0.55
0.59
0.56
0.45
0.25
-0.00
-0.25
-0.44
-0.55
-0.59
-0.60
-0.60
-0.61
-0.59
-0.52
-0.39
-0.20
0.01
0.18
0.29
0.34
0.39
0.46
0.57
0.64
0.62
0.48
0.23
-0.04
-0.23
-0.34
-0.37
-0.40
-0.47
-0.55
-0.56
-0.42
-0.12
0.25
0.57
0.71
0.67
0.53
0.41
0.41
0.55
0.76
0.95
1.05
1.02
0.89
0.72
0.56
0.44
0.33
0.18
-0.08
-0.49
-1.01
-1.52
-1.88
-1.97
-1.79
-1.44
-1.06
-0.79
-0.64
-0.56
-0.45
-0.27
-0.07
0.07
0.08
-0.06
-0.26
-0.43
-0.47
-0.39
-0.24
-0.10
0.00
0.08
0.18
0.33
0.51
0.67
0.74
0.70
0.60
0.51
0.47
0.48
0.47
0.40
0.24
0.04
-0.11
-0.16
-0.12
-0.05
-0.04
-0.12
-0.26
-0.39
-0.42
-0.33
-0.16
0.05
0.22
0.32
0.38
0.40
0.37
0.28
0.10
-0.17
-0.48
-0.73
-0.84
-0.73
-0.44
-0.10
0.12
0.11
-0.13
-0.44
-0.61
-0.49
-0.09
0.45
0.88
1.04
0.88
0.48
-0.02
-0.48
-0.83
-1.04
-1.15
-1.15
-1.08
-0.92
-0.68
-0.35
0.08
0.58
1.08
1.45
1.55
1.35
0.90
0.37
-0.05
-0.24
-0.18
0.02
0.26
0.48
0.64
0.76
0.83
0.83
0.72
0.47
0.12
-0.28
-0.64
-0.89
-1.01
-1.00
-0.90
-0.74
-0.58
-0.42
-0.25
-0.08
0.13
0.35
0.55
0.67
0.70
0.64
0.54
0.45
0.38
0.29
0.13
-0.12
-0.46
-0.78
-1.00
-1.05
-0.91
-0.64
-0.31
-0.01
0.20
0.30
0.26
0.08
-0.19
-0.48
-0.68
-0.68
-0.48
-0.15
0.15
0.28
0.17
-0.11
-0.40
-0.53
-0.41
-0.05
0.38
0.72
0.86
0.79
0.62
0.46
0.40
0.45
0.52
0.54
0.45
0.30
0.16
0.12
0.22
0.42
0.65
0.84
0.93
0.90
0.74
0.45
0.07
-0.32
-0.64
-0.79
-0.74
-0.55
-0.30
-0.12
-0.08
-0.12
-0.19
-0.18
-0.08
0.05
0.12
0.04
-0.21
-0.55
-0.88
-1.09
-1.11
-0.94
-0.67
-0.39
-0.21
-0.13
-0.12
-0.08
0.05
0.27
0.49
0.61
0.58
0.45
0.31
0.28
0.36
0.49
0.55
0.46
0.24
-0.02
-0.18
-0.16
0.06
0.39
0.68
0.82
0.73
0.45
0.06
-0.33
-0.60
-0.70
-0.61
-0.38
-0.07
0.24
0.45
0.49
0.32
-0.08
-0.61
-1.12
-1.46
-1.51
-1.25
-0.76
-0.21
0.24
0.47
0.46
0.27
0.03
-0.14
-0.18
-0.09
0.07
0.23
0.32
0.31
0.20
0.05
-0.09
-0.16
-0.11
0.04
0.20
0.32
0.34
0.25
0.10
-0.03
-0.09
-0.02
0.18
0.50
0.93
1.40
1.82
2.06
2.03
1.69
1.09
0.37
-0.31
-0.77
-0.95
-0.87
-0.61
-0.32
-0.11
-0.05
-0.14
-0.32
-0.49
-0.61
-0.63
-0.60
-0.55
-0.51
-0.48
-0.41
-0.24
0.04
0.39
0.73
0.96
1.02
0.90
0.63
0.29
-0.07
-0.37
-0.56
-0.62
-0.54
-0.38
-0.20
-0.11
-0.15
-0.31
-0.52
-0.68
-0.69
-0.54
-0.30
-0.07
0.05
0.03
-0.10
-0.26
-0.38
-0.44
-0.50
-0.62
-0.84
-1.15
-1.46
-1.64
-1.62
-1.38
-0.99
-0.57
-0.24
-0.07
-0.08
-0.19
-0.31
-0.37
-0.34
-0.23
-0.11
0.02
0.14
0.25
0.35
0.44
0.50
0.56
0.66
0.83
1.05
1.26
1.35
1.25
0.98
0.60
0.25
0.01
-0.08
-0.05
0.03
0.13
0.26
0.45
0.71
1.00
1.21
1.23
1.00
0.59
0.13
-0.21
-0.35
-0.30
-0.17
-0.09
-0.14
-0.29
-0.49
-0.64
-0.67
-0.59
-0.39
-0.13
0.13
0.31
0.33
0.18
-0.12
-0.44
-0.67
-0.71
-0.56
-0.30
-0.01
0.21
0.36
0.44
0.46
0.43
0.35
0.24
0.15
0.17
0.31
0.53
0.76
0.88
0.83
0.62
0.31
-0.03
-0.33
-0.53
-0.63
-0.62
-0.54
-0.43
-0.36
-0.36
-0.42
-0.46
-0.43
-0.29
-0.10
0.07
0.15
0.15
0.14
0.18
0.27
0.34
0.31
0.15
-0.05
-0.16
-0.06
0.27
0.72
1.12
1.35
1.36
1.21
0.97
0.75
0.56
0.43
0.31
0.18
-0.03
-0.33
-0.71
-1.09
-1.36
-1.42
-1.26
-1.00
-0.78
-0.74
-0.90
-1.15
-1.33
-1.25
-0.87
-0.29
0.32
0.79
1.03
1.02
0.85
0.60
0.35
0.15
0.03
0.02
0.08
0.16
0.16
0.01
-0.33
-0.77
-1.20
-1.49
-1.58
-1.51
-1.34
-1.13
-0.88
-0.58
-0.23
0.17
0.55
0.85
1.02
1.03
0.90
0.67
0.40
0.17
0.05
0.04
0.11
0.16
0.08
-0.14
-0.45
-0.70
-0.77
-0.59
-0.19
0.29
0.71
0.95
0.97
0.77
0.45
0.10
-0.17
-0.31
-0.29
-0.15
0.05
0.22
0.34
0.40
0.43
0.46
0.48
0.44
0.34
0.18
0.02
-0.08
-0.05
0.08
0.27
0.44
0.53
0.52
0.40
0.21
0.01
-0.17
-0.28
-0.31
-0.24
-0.10
0.05
0.16
0.18
0.11
-0.03
-0.16
-0.23
-0.20
-0.10
0.03
0.11
0.09
-0.03
-0.22
-0.41
-0.55
-0.57
-0.47
-0.24
0.08
0.47
0.89
1.30
1.62
1.77
1.70
1.39
0.91
0.41
0.05
-0.07
0.01
0.16
0.26
0.22
0.09
-0.04
-0.12
-0.15
-0.21
-0.36
-0.62
-0.89
-1.09
-1.13
-1.02
-0.87
-0.77
-0.79
-0.91
-1.04
-1.08
-1.00
-0.81
-0.60
-0.45
-0.40
-0.42
-0.45
-0.40
-0.26
-0.05
0.17
0.33
0.41
0.45
0.48
0.52
0.58
0.62
0.63
0.57
0.47
0.37
0.30
0.31
0.37
0.44
0.44
0.35
0.18
0.02
-0.04
0.05
0.26
0.48
0.61
0.56
0.34
0.03
-0.31
-0.59
-0.75
-0.79
-0.69
-0.46
-0.15
0.18
0.40
0.43
0.23
-0.12
-0.46
-0.60
-0.43
0.03
0.63
1.15
1.43
1.40
1.14
0.75
0.34
-0.04
-0.40
-0.74
-1.02
-1.21
-1.27
-1.22
-1.09
-0.93
-0.78
-0.68
-0.63
-0.64
-0.67
-0.66
-0.55
-0.30
0.06
0.45
0.75
0.87
0.83
0.72
0.63
0.62
0.68
0.75
0.77
0.73
0.62
0.49
0.31
0.08
-0.25
-0.61
-0.93
-1.06
-0.93
-0.57
-0.09
0.33
0.56
0.53
0.32
0.02
-0.27
-0.50
-0.68
-0.82
-0.92
-0.93
-0.81
-0.54
-0.18
0.18
0.43
0.48
0.32
0.05
-0.19
-0.27
-0.13
0.16
0.49
0.70
0.72
0.60
0.43
0.31
0.28
0.32
0.37
0.38
0.37
0.36
0.35
0.34
0.30
0.24
0.20
0.23
0.34
0.48
0.54
0.41
0.01
-0.56
-1.14
-1.52
-1.56
-1.22
-0.64
-0.02
0.37
0.42
0.12
-0.36
-0.80
-1.01
-0.90
-0.56
-0.12
0.27
0.51
0.63
0.65
0.65
0.63
0.59
0.50
0.37
0.24
0.15
0.08
0.01
-0.11
-0.32
-0.62
-0.93
-1.16
-1.21
-1.05
-0.70
-0.27
0.11
0.33
0.35
0.21
-0.02
-0.23
-0.35
-0.32
-0.18
0.04
0.30
0.54
0.72
0.81
0.82
0.76
0.66
0.57
0.48
0.39
0.30
0.18
0.07
0.02
0.04
0.17
0.37
0.58
0.77
0.86
0.84
0.72
0.52
0.27
0.02
-0.20
-0.40
-0.57
-0.72
-0.82
-0.86
-0.81
-0.68
-0.50
-0.31
-0.15
-0.04
0.05
0.13
0.22
0.29
0.31
0.24
0.08
-0.09
-0.20
-0.17
0.01
0.24
0.41
0.43
0.27
-0.02
-0.37
-0.69
-0.95
-1.11
-1.15
-1.04
-0.76
-0.37
0.02
0.27
0.29
0.11
-0.18
-0.44
-0.59
-0.62
-0.55
-0.42
-0.22
0.03
0.33
0.60
0.77
0.82
0.77
0.70
0.69
0.78
0.96
1.23
1.58
1.99
2.44
2.89
3.26
3.52
3.72
3.98
4.43
5.14
6.08
7.11
8.09
8.93
9.70
10.54
11.65
13.12
14.98
17.08
19.22
21.19
22.94
24.55
26.30
28.52
31.48
35.25
39.66
44.33
48.93
53.23
57.33
61.52
66.20
71.71
78.20
85.65
93.94
102.93
112.61
123.16
134.94
148.59
164.92
184.76
208.43
235.07
262.22
285.92
301.72
306.08
297.71
278.08
250.69
219.73
188.47
158.44
129.57
100.94
71.52
40.56
7.58
-27.42
-63.72
-99.33
-131.02
-154.96
-167.91
-168.32
-156.64
-135.10
-107.03
-76.29
-47.19
-24.17
-11.43
-12.07
-27.26
-55.76
-94.11
-137.38
-180.13
-217.30
-244.91
-260.58
-264.02
-257.01
-242.88
-225.53
-208.21
-192.77
-179.55
-167.93
-157.03
-146.22
-135.19
-123.90
-112.34
-100.60
-88.91
-77.66
-67.32
-58.42
-51.40
-46.49
-43.74
-42.93
-43.60
-45.09
-46.72
-47.91
-48.35
-48.04
-47.18
-46.09
-45.03
-44.12
-43.38
-42.74
-42.06
-41.19
-39.88
-37.74
-34.29
-29.14
-22.18
-13.76
-4.67
4.07
11.65
17.80
22.85
27.64
32.99
39.38
46.65
54.14
60.96
66.40
70.09
72.05
72.47
71.63
69.71
66.81
62.96
58.24
52.77
46.70
40.18
33.39
26.50
19.77
13.52
8.09
3.68
0.33
-2.16
-4.11
-5.87
-7.66
-9.56
-11.51
-13.41
-15.18
-16.73
-17.98
-18.78
-18.99
-18.55
-17.53
-16.13
-14.58
-13.10
-11.76
-10.55
-9.44
-8.45
-7.65
-7.19
-7.17
-7.62
-8.44
-9.43
-10.34
-10.89
-10.85
-10.14
-8.85
-7.39
-6.27
-6.00
-6.82
-8.59
-10.81
-12.89
-14.33
-14.97
-14.93
-14.48
-13.84
-13.10
-12.24
-11.17
-9.94
-8.68
-7.60
-6.83
-6.43
-6.31
-6.29
-6.24
-6.12
-5.98
-5.88
-5.87
-5.88
-5.80
-5.54
-5.05
-4.40
-3.70
-3.06
-2.56
-2.19
-1.90
-1.68
-1.53
-1.51
-1.72
-2.21
-2.97
-3.91
-4.87
-5.70
-6.32
-6.76
-7.19
-7.81
-8.77
-10.03
-11.40
-12.60
-13.45
-13.96
-14.42
-15.19
-16.62
-18.85
-21.74
-24.94
-28.05
-30.84
-33.29
-35.63
-38.22
-41.33
-44.98
-48.99
-53.05
-56.82
-60.14
-63.01
-65.60
-68.13
-70.83
-73.83
-77.05
-80.02
-81.82
-81.23
-77.13
-69.10
-57.82
-45.15
-33.68
-25.98
-23.76
-27.42
-35.82
-46.65
-56.98
-64.02
-65.78
-61.42
-51.15
-35.63
-15.57
8.46
35.66
64.50
92.39
116.23
133.41
142.71
144.69
141.05
133.63
123.58
111.30
97.08
81.88
67.47
55.92
48.67
45.89
46.41
48.45
50.43
51.52
51.67
51.24
50.46
49.23
47.16
43.88
39.36
34.06
28.79
24.39
21.42
19.91
19.51
19.59
19.62
19.30
18.61
17.74
16.89
16.18
15.62
15.10
14.53
13.84
13.04
12.16
11.25
10.32
9.36
8.36
7.32
6.29
5.32
4.49
3.75
3.02
2.13
0.96
-0.49
-2.05
-3.39
-4.22
-4.35
-3.82
-2.84
-1.70
-0.68
0.02
0.25
-0.03
-0.87
-2.24
-3.98
-5.82
-7.43
-8.53
-8.95
-8.71
-7.97
-6.92
-5.78
-4.69
-3.74
-2.95
-2.35
-1.91
-1.64
-1.50
-1.45
-1.45
-1.44
-1.44
-1.47
-1.60
-1.85
-2.21
-2.61
-2.98
-3.24
-3.39
-3.44
-3.41
-3.28
-3.03
-2.63
-2.10
-1.53
-1.06
-0.81
-0.83
-1.09
-1.44
-1.73
-1.84
-1.71
-1.42
-1.07
-0.76
-0.53
-0.37
-0.20
0.01
0.26
0.46
0.51
0.32
-0.12
-0.74
-1.43
-2.04
-2.44
-2.55
-2.33
-1.77
-0.89
0.31
1.72
3.18
4.42
5.23
5.49
5.27
4.77
4.20
3.72
3.39
3.21
3.22
3.58
4.43
5.84
7.67
9.53
10.93
11.41
10.86
9.58
8.30
7.91
9.13
12.26
17.04
22.77
28.45
33.08
35.83
36.21
34.21
30.30
25.34
20.36
16.26
13.48
11.97
11.25
10.68
9.82
8.53
6.94
5.27
3.70
2.24
0.85
-0.57
-2.01
-3.36
-4.48
-5.23
-5.60
-5.78
-6.09
-6.87
-8.33
-10.45
-13.01
-15.72
-18.38
-20.89
-23.27
-25.55
-27.67
-29.54
-31.07
-32.27
-33.26
-34.21
-35.21
-36.19
-36.95
-37.19
-36.68
-35.34
-33.21
-30.41
-27.04
-23.19
-18.94
-14.45
-10.00
-5.88
-2.27
0.80
3.50
6.03
8.47
10.69
12.39
13.27
13.31
12.82
12.35
12.39
13.08
14.18
15.19
15.83
16.21
16.86
18.28
20.53
23.00
24.75
25.03
23.76
21.54
19.16
17.03
14.93
12.34
9.02
5.26
1.73
-1.04
-3.12
-5.10
-7.55
-10.56
-13.52
-15.56
-16.13
-15.37
-14.03
-12.97
-12.70
-13.18
-14.02
-14.81
-15.41
-15.94
-16.65
-17.66
-18.92
-20.16
-21.02
-21.24
-20.80
-20.03
-19.44
-19.56
-20.63
-22.43
-24.26
-25.26
-24.69
-22.29
-18.36
-13.56
-8.66
-4.23
-0.47
2.64
5.18
7.15
8.40
8.82
8.50
7.82
7.28
7.30
7.95
8.98
9.92
10.34
10.02
9.01
7.59
6.13
5.04
4.64
5.11
6.42
8.34
10.50
12.52
14.16
15.40
16.40
17.37
18.44
19.53
20.42
20.87
20.81
20.33
19.67
19.06
18.66
18.45
18.31
18.01
17.37
16.23
14.57
12.52
10.33
8.34
6.87
6.11
6.07
6.59
7.39
8.12
8.39
7.87
6.31
3.70
0.24
-3.74
-7.94
-12.23
-16.66
-21.39
-26.59
-32.22
-38.03
-43.63
-48.63
-52.72
-55.67
-57.27
-57.27
-55.54
-52.24
-47.86
-43.07
-38.42
-34.10
-29.96
-25.74
-21.35
-16.97
-12.91
-9.31
-5.96
-2.37
1.95
7.03
12.41
17.38
21.37
24.27
26.34
27.95
29.31
30.30
30.61
29.93
28.20
25.60
22.55
19.57
17.10
15.39
14.39
13.86
13.44
12.88
12.11
11.25
10.50
9.97
9.60
9.17
8.41
7.25
5.82
4.45
3.51
3.23
3.65
4.57
5.71
6.80
7.70
8.35
8.78
9.01
9.06
8.96
8.79
8.62
8.54
8.57
8.72
8.93
9.19
9.54
10.06
10.85
11.98
13.40
14.93
16.32
17.23
17.36
16.46
14.37
11.03
6.53
1.16
-4.58
-10.01
-14.45
-17.47
-19.05
-19.63
-19.93
-20.63
-22.10
-24.28
-26.80
-29.21
-31.15
-32.45
-32.99
-32.69
-31.41
-29.04
-25.53
-21.00
-15.69
-9.95
-4.18
1.24
5.94
9.57
11.89
12.83
12.65
11.93
11.44
11.94
13.78
16.77
20.16
22.94
24.30
23.93
22.15
19.57
16.88
14.48
12.48
10.91
9.85
9.47
10.03
11.64
14.23
17.69
21.92
27.09
33.55
41.68
51.68
63.22
75.37
86.64
95.28
99.62
98.60
92.03
80.64
65.99
50.06
34.82
21.90
12.27
6.20
3.29
2.77
3.74
5.59
8.19
11.81
16.92
23.75
32.02
40.86
49.06
55.49
59.62
61.81
63.34
66.12
72.00
81.77
94.42
106.79
114.13
111.40
94.95
64.06
21.57
-26.66
-73.36
-111.98
-138.38
-151.67
-153.80
-148.37
-139.11
-128.82
-118.99
-110.12
-102.33
-95.73
-90.56
-86.81
-83.96
-81.00
-76.87
-71.08
-64.01
-56.84
-50.99
-47.34
-45.84
-45.56
-45.24
-43.92
-41.36
-37.94
-34.35
-31.15
-28.59
-26.63
-25.05
-23.59
-21.96
-19.88
-17.15
-13.85
-10.39
-7.36
-5.18
-3.86
-2.92
-1.73
0.09
2.39
4.59
6.10
6.67
6.59
6.36
6.41
6.74
7.00
6.78
5.92
4.63
3.37
2.51
2.16
2.12
2.08
1.81
1.32
0.75
0.30
0.05
-0.08
-0.28
-0.74
-1.56
-2.69
-3.93
-5.04
-5.80
-6.11
-6.07
-5.90
-5.94
-6.47
-7.58
-9.16
-10.92
-12.50
-13.60
-14.16
-14.28
-14.21
-14.17
-14.26
-14.40
-14.37
-13.99
-13.15
-11.94
-10.51
-9.00
-7.50
-6.04
-4.67
-3.47
-2.42
-1.30
0.35
3.00
6.73
11.03
14.87
17.14
17.28
15.60
13.29
11.83
12.35
15.20
19.87
25.39
30.67
34.82
37.24
37.52
35.45
31.13
25.10
18.27
11.78
6.61
3.30
1.80
1.55
1.76
1.77
1.18
0.02
-1.45
-2.86
-3.90
-4.42
-4.42
-4.02
-3.39
-2.70
-2.15
-1.91
-2.05
-2.56
-3.30
-4.05
-4.58
-4.72
-4.50
-4.07
-3.66
-3.45
-3.47
-3.60
-3.66
-3.49
-3.06
-2.48
-1.92
-1.54
-1.39
-1.42
-1.50
-1.52
-1.44
-1.27
-1.07
-0.90
-0.76
-0.63
-0.48
-0.30
-0.10
0.10
0.26
0.37
0.45
0.50
0.55
0.61
0.65
0.64
0.55
0.33
-0.04
-0.50
-0.94
-1.22
-1.26
-1.07
-0.74
-0.44
-0.31
-0.39
-0.62
-0.84
-0.93
-0.82
-0.56
-0.28
-0.10
-0.11
-0.28
-0.52
-0.74
-0.90
-1.03
-1.24
-1.60
-2.08
-2.57
-2.88
-2.85
-2.46
-1.87
-1.29
-0.94
-0.85
-0.91
-0.93
-0.77
-0.40
0.06
0.46
0.69
0.77
0.76
0.71
0.65
0.53
0.31
0.01
-0.27
-0.43
-0.40
-0.21
0.06
0.30
0.45
0.55
0.68
0.92
1.27
1.65
1.93
2.03
1.94
1.75
1.56
1.43
1.31
1.11
0.77
0.29
-0.25
-0.72
-1.00
-1.03
-0.85
-0.49
-0.05
0.39
0.76
1.00
1.10
1.07
0.93
0.72
0.49
0.32
0.26
0.34
0.52
0.70
0.73
0.51
0.05
-0.52
-1.00
-1.22
-1.12
-0.79
-0.40
-0.14
-0.11
-0.27
-0.47
-0.58
-0.49
-0.25
0.04
0.22
0.19
-0.05
-0.37
-0.64
-0.73
-0.65
-0.48
-0.34
-0.30
-0.37
-0.46
-0.52
-0.52
-0.47
-0.42
-0.38
-0.31
-0.17
0.09
0.41
0.69
0.80
0.68
0.36
-0.07
-0.43
-0.61
-0.52
-0.20
0.25
0.69
0.98
1.02
0.80
0.38
-0.14
-0.61
-0.95
-1.14
-1.21
-1.22
-1.24
-1.30
-1.38
-1.45
-1.44
-1.31
-1.10
-0.84
-0.62
-0.52
-0.55
-0.70
-0.90
-1.04
-0.96
-0.48
0.54
2.11
4.02
5.92
7.37
8.01
7.74
6.70
5.20
3.58
2.08
0.84
-0.10
-0.74
-1.09
-1.17
-1.09
-0.98
-0.99
-1.21
-1.63
-2.19
-2.79
-3.34
-3.78
-4.06
-4.23
-4.33
-4.47
-4.72
-5.14
-5.69
-6.24
-6.67
-6.83
-6.70
-6.32
-5.78
-5.13
-4.35
-3.35
-2.03
-0.38
1.47
3.30
4.89
6.02
6.62
6.70
6.31
5.57
4.65
3.76
3.11
2.84
2.89
2.99
2.78
1.96
0.49
-1.36
-3.13
-4.36
-4.82
-4.62
-4.09
-3.68
-3.78
-4.63
-6.27
-8.48
-10.61
-11.66
-10.52
-6.41
0.68
9.82
19.36
27.50
32.77
34.39
32.28
26.84
18.81
9.21
-0.76
-9.82
-16.94
-21.60
-23.93
-24.53
-24.13
-23.23
-22.01
-20.37
-17.99
-14.51
-9.48
-2.52
6.55
17.32
28.58
38.32
44.21
44.33
38.05
26.39
11.80
-2.66
-14.42
-22.21
-26.26
-27.83
-28.35
-28.77
-29.25
-29.45
-28.97
-27.72
-25.95
-24.02
-22.19
-20.54
-19.00
-17.50
-16.06
-14.73
-13.59
-12.61
-11.72
-10.76
-9.54
-7.87
-5.63
-2.89
0.06
2.87
5.21
7.06
8.65
10.37
12.50
14.96
17.31
18.88
19.17
18.08
16.10
14.12
13.08
13.59
15.73
19.06
22.95
26.91
30.75
34.53
38.32
41.89
44.71
46.25
46.20
44.79
42.56
40.03
37.31
34.04
29.64
23.73
16.40
8.20
-0.12
-7.94
-14.96
-21.13
-26.48
-30.93
-34.36
-36.70
-38.18
-39.21
-40.28
-41.64
-43.19
-44.59
-45.82
-47.53
-51.07
-57.96
-68.82
-82.54
-96.20
-106.00
-108.61
-102.45
-87.96
-67.15
-42.66
-16.94
7.87
29.55
45.62
53.52
51.45
39.26
18.72
-7.08
-34.81
-62.06
-87.70
-111.63
-134.09
-154.96
-173.57
-188.77
-199.45
-205.01
-205.70
-202.64
-197.48
-192.05
-187.79
-185.30
-184.06
-182.51
-178.43
-169.70
-154.96
-133.95
-107.52
-77.15
-44.20
-9.42
27.18
65.63
105.14
143.38
176.58
200.65
212.78
212.68
202.73
186.92
169.20
152.31
137.44
124.84
114.68
107.38
103.20
101.51
100.43
97.25
89.55
76.60
60.31
45.01
36.17
38.11
52.05
75.20
101.60
124.27
137.85
140.42
133.74
121.84
108.89
97.46
87.99
79.52
70.94
61.90
52.94
44.94
38.45
33.27
28.62
23.55
17.47
10.50
3.41
-2.76
-7.13
-9.29
-9.36
-7.84
-5.31
-2.22
1.15
4.67
8.20
11.57
14.54
16.80
17.98
17.81
16.18
13.31
9.77
6.33
3.69
2.24
1.83
1.90
1.74
0.88
-0.69
-2.59
-4.25
-5.22
-5.40
-5.05
-4.59
-4.41
-4.70
-5.39
-6.24
-6.95
-7.31
-7.23
-6.74
-5.99
-5.14
-4.38
-3.85
-3.61
-3.58
-3.55
-3.21
-2.29
-0.65
1.64
4.34
7.10
9.65
11.77
13.31
14.15
14.16
13.31
11.68
9.57
7.38
5.47
4.05
3.13
2.57
2.19
1.85
1.50
1.10
0.64
0.16
-0.34
-0.78
-1.10
-1.26
-1.23
-1.05
-0.76
-0.40
-0.01
0.40
0.82
1.25
1.70
2.18
2.65
3.04
3.25
3.21
2.91
2.44
1.91
1.41
0.98
0.60
0.23
-0.15
-0.48
-0.71
-0.81
-0.78
-0.68
-0.56
-0.40
-0.18
0.14
0.51
0.79
0.79
0.38
-0.39
-1.34
-2.17
-2.67
-2.75
-2.52
-2.15
-1.81
-1.56
-1.38
-1.21
-1.04
-0.92
-0.95
-1.16
-1.52
-1.94
-2.27
-2.41
-2.35
-2.14
-1.88
-1.72
-1.74
-1.96
-2.32
-2.69
-2.96
-3.03
-2.93
-2.74
-2.56
-2.46
-2.42
-2.37
-2.23
-1.98
-1.69
-1.48
-1.45
-1.61
-1.85
-1.99
-1.90
-1.54
-0.99
-0.41
0.05
0.29
0.32
0.16
-0.14
-0.54
-1.00
-1.45
-1.75
-1.79
-1.48
-0.88
-0.17
0.43
0.75
0.71
0.43
0.10
-0.11
-0.09
0.12
0.41
0.63
0.73
0.71
0.63
0.53
0.43
0.28
0.07
-0.21
-0.50
-0.70
-0.76
-0.63
-0.36
-0.02
0.31
0.54
0.61
0.50
0.21
-0.21
-0.67
-1.04
-1.21
-1.13
-0.81
-0.32
0.18
0.54
0.66
0.51
0.16
-0.26
-0.59
-0.72
-0.58
-0.24
0.19
0.56
0.73
0.64
0.30
-0.19
-0.71
-1.13
-1.39
-1.48
-1.42
-1.26
-1.02
-0.76
-0.50
-0.29
-0.16
-0.11
-0.11
-0.12
-0.12
-0.09
-0.10
-0.17
-0.35
-0.61
-0.87
-1.07
-1.18
-1.21
-1.26
-1.37
-1.56
-1.79
-1.97
-2.02
-1.91
-1.65
-1.30
-0.94
-0.63
-0.42
-0.37
-0.44
-0.61
-0.78
-0.86
-0.79
-0.56
-0.24
0.10
0.36
0.50
0.53
0.48
0.36
0.20
-0.01
-0.24
-0.41
-0.48
-0.37
-0.07
0.34
0.76
1.07
1.18
1.11
0.95
0.80
0.78
0.91
1.12
1.32
1.39
1.29
1.05
0.79
0.64
0.71
1.02
1.48
1.95
2.24
2.22
1.85
1.21
0.47
-0.17
-0.55
-0.63
-0.49
-0.28
-0.16
-0.19
-0.35
-0.53
-0.65
-0.70
-0.73
-0.81
-0.98
-1.14
-1.18
-1.03
-0.78
-0.63
-0.83
-1.45
-2.38
-3.30
-3.88
-3.96
-3.66
-3.28
-3.12
-3.32
-3.76
-4.15
-4.21
-3.84
-3.17
-2.42
-1.84
-1.58
-1.67
-2.13
-2.99
-4.26
-5.69
-6.75
-6.65
-4.68
-0.63
4.98
11.01
16.10
19.23
20.00
18.72
16.09
12.82
9.37
5.89
2.41
-1.00
-4.12
-6.58
-7.99
-8.10
-6.93
-4.79
-2.33
-0.37
0.34
-0.61
-3.12
-6.60
-10.18
-13.04
-14.69
-15.11
-14.68
-14.00
-13.57
-13.65
-14.21
-14.92
-15.42
-15.36
-14.43
-12.43
-9.28
-5.29
-1.35
1.22
1.14
-2.11
-7.70
-13.60
-17.36
-17.23
-13.03
-6.28
0.60
5.47
7.41
7.06
5.97
5.77
7.35
10.58
14.55
18.16
20.59
21.49
21.03
19.58
17.48
14.89
11.89
8.57
5.27
2.58
1.24
1.77
4.21
7.96
11.95
14.97
16.21
15.62
13.91
12.22
11.57
12.33
14.10
15.92
16.78
16.08
13.86
10.63
7.13
3.97
1.46
-0.36
-1.61
-2.44
-2.93
-3.10
-3.00
-2.73
-2.50
-2.49
-2.79
-3.34
-3.90
-4.22
-4.13
-3.67
-3.04
-2.55
-2.42
-2.69
-3.21
-3.75
-4.05
-4.01
-3.67
-3.18
-2.65
-2.19
-1.78
-1.39
-1.01
-0.71
-0.60
-0.72
-1.03
-1.37
-1.54
-1.45
-1.15
-0.80
-0.62
-0.74
-1.15
-1.69
-2.14
-2.33
-2.17
-1.69
-1.01
-0.27
0.41
0.90
1.18
1.23
1.10
0.91
0.77
0.79
1.02
1.47
2.04
2.61
3.07
3.30
3.28
3.07
2.76
2.48
2.30
2.21
2.15
2.08
1.95
1.79
1.62
1.44
1.25
1.01
0.75
0.51
0.32
0.21
0.12
-0.00
-0.20
-0.44
-0.68
-0.84
-0.93
-0.98
-1.02
-1.10
-1.19
-1.23
-1.20
-1.12
-1.07
-1.10
-1.22
-1.39
-1.48
-1.41
-1.09
-0.56
0.11
0.79
1.32
1.59
1.56
1.24
0.74
0.19
-0.27
-0.58
-0.77
-0.91
-1.12
-1.47
-1.95
-2.50
-3.04
-3.49
-3.81
-3.95
-3.92
-3.74
-3.46
-3.15
-2.88
-2.70
-2.60
-2.54
-2.46
-2.33
-2.15
-1.96
-1.79
-1.64
-1.49
-1.33
-1.18
-1.07
-1.00
-0.98
-0.93
-0.79
-0.52
-0.16
0.16
0.34
0.33
0.15
-0.09
-0.31
-0.46
-0.53
-0.53
-0.47
-0.34
-0.15
0.07
0.26
0.36
0.34
0.24
0.14
0.12
0.18
0.27
0.29
0.13
-0.21
-0.65
-1.06
-1.29
-1.28
-1.08
-0.78
-0.53
-0.41
-0.44
-0.58
-0.77
-0.97
-1.19
-1.40
-1.57
-1.63
-1.54
-1.28
-0.96
-0.70
-0.61
-0.71
-0.94
-1.19
-1.35
-1.39
-1.30
-1.14
-0.95
-0.74
-0.54
-0.35
-0.20
-0.12
-0.11
-0.20
-0.37
-0.62
-0.90
-1.15
-1.28
-1.24
-1.01
-0.66
-0.29
-0.01
0.13
0.12
0.01
-0.18
-0.38
-0.55
-0.66
-0.67
-0.56
-0.37
-0.19
-0.13
-0.28
-0.65
-1.17
-1.70
-2.13
-2.42
-2.65
-2.93
-3.34
-3.87
-4.41
-4.85
-5.13
-5.33
-5.59
-6.05
-6.70
-7.38
-7.90
-8.07
-7.86
-7.27
-6.30
-4.83
-2.64
0.48
4.53
9.22
14.01
18.31
21.65
23.81
24.82
24.80
23.84
21.93
19.07
15.35
11.07
6.68
2.72
-0.37
-2.38
-3.36
-3.61
-3.47
-3.25
-3.12
-3.10
-3.10
-3.10
-3.08
-3.11
-3.21
-3.32
-3.34
-3.14
-2.76
-2.32
-2.05
-2.14
-2.59
-3.25
-3.83
-4.09
-3.94
-3.46
-2.84
-2.29
-1.90
-1.69
-1.58
-1.53
-1.50
-1.53
-1.62
-1.73
-1.75
-1.60
-1.25
-0.76
-0.31
-0.07
-0.13
-0.46
-0.88
-1.21
-1.32
-1.16
-0.83
-0.44
-0.14
0.03
0.07
0.06
0.08
0.16
0.24
0.24
0.06
-0.31
-0.79
-1.25
-1.60
-1.81
-1.92
-2.01
-2.11
-2.17
-2.12
-1.90
-1.54
-1.16
-0.90
-0.88
-1.11
-1.56
-2.09
-2.59
-2.99
-3.24
-3.37
-3.39
-3.35
-3.29
-3.29
-3.42
-3.74
-4.22
-4.76
-5.20
-5.36
-5.14
-4.55
-3.71
-2.76
-1.85
-1.02
-0.31
0.28
0.73
0.98
1.01
0.84
0.54
0.20
-0.16
-0.52
-0.89
-1.26
-1.61
-1.95
-2.29
-2.70
-3.27
-4.02
-4.86
-5.59
-5.89
-5.42
-3.92
-1.28
2.30
6.40
10.47
14.00
16.70
18.60
19.88
20.69
21.08
20.88
19.94
18.24
15.93
13.28
10.50
7.66
4.75
1.79
-1.05
-3.47
-5.18
-6.04
-6.16
-5.78
-5.17
-4.45
-3.53
-2.28
-0.63
1.31
3.22
4.67
5.29
4.99
4.09
3.20
2.90
3.43
4.46
5.21
4.88
3.05
-0.00
-3.55
-6.77
-9.20
-10.93
-12.44
-14.22
-16.37
-18.60
-20.36
-21.23
-21.13
-20.32
-19.14
-17.80
-16.29
-14.37
-11.83
-8.62
-4.97
-1.28
1.96
4.47
6.15
7.17
7.81
8.39
9.11
10.06
11.15
12.24
13.16
13.80
14.20
14.49
14.87
15.45
16.21
17.03
17.71
18.10
18.14
17.89
17.43
16.82
16.06
15.09
13.89
12.45
10.84
9.08
7.19
5.16
2.94
0.55
-1.97
-4.55
-7.13
-9.67
-12.12
-14.42
-16.48
-18.22
-19.65
-20.81
-21.82
-22.79
-23.75
-24.67
-25.49
-26.13
-26.52
-26.70
-26.77
-26.91
-27.29
-28.04
-29.12
-30.27
-31.02
-30.80
-29.04
-25.32
-19.56
-11.99
-3.15
6.20
15.23
23.22
29.68
34.42
37.60
39.54
40.57
40.86
40.40
39.07
36.82
33.77
30.31
26.86
23.77
21.11
18.69
16.20
13.44
10.40
7.31
4.50
2.17
0.34
-1.10
-2.34
-3.47
-4.45
-5.17
-5.55
-5.57
-5.33
-5.02
-4.75
-4.59
-4.50
-4.39
-4.20
-3.89
-3.46
-2.95
-2.42
-1.90
-1.39
-0.81
-0.06
0.91
2.04
3.13
3.87
4.00
3.41
2.19
0.62
-0.99
-2.35
-3.30
-3.76
-3.73
-3.25
-2.48
-1.63
-0.92
-0.56
-0.53
-0.69
-0.80
-0.72
-0.44
-0.08
0.19
0.27
0.21
0.11
0.04
-0.04
-0.22
-0.63
-1.28
-2.11
-3.00
-3.80
-4.42
-4.82
-4.97
-4.85
-4.48
-3.90
-3.25
-2.67
-2.32
-2.22
-2.33
-2.52
-2.67
-2.73
-2.72
-2.71
-2.73
-2.75
-2.72
-2.58
-2.35
-2.13
-2.03
-2.08
-2.23
-2.37
-2.41
-2.29
-2.08
-1.84
-1.64
-1.47
-1.29
-1.08
-0.87
-0.74
-0.78
-1.00
-1.33
-1.62
-1.73
-1.59
-1.23
-0.77
-0.33
-0.01
0.19
0.32
0.44
0.59
0.71
0.76
0.68
0.48
0.21
-0.06
-0.26
-0.37
-0.39
-0.35
-0.31
-0.29
-0.33
-0.41
-0.50
-0.50
-0.36
-0.07
0.30
0.63
0.78
0.73
0.51
0.23
-0.02
-0.18
-0.28
-0.35
-0.37
-0.32
-0.13
0.17
0.51
0.77
0.86
0.76
0.56
0.37
0.26
0.25
0.28
0.24
0.08
-0.20
-0.53
-0.80
-0.94
-0.92
-0.75
-0.53
-0.32
-0.18
-0.07
0.02
0.11
0.21
0.24
0.17
-0.03
-0.32
-0.62
-0.86
-0.97
-0.92
-0.74
-0.49
-0.28
-0.24
-0.41
-0.76
-1.16
-1.44
-1.48
-1.25
-0.79
-0.24
0.27
0.67
0.91
1.02
1.00
0.89
0.74
0.58
0.46
0.39
0.37
0.39
0.42
0.48
0.55
0.63
0.73
0.81
0.87
0.86
0.76
0.54
0.20
-0.16
-0.45
-0.56
-0.46
-0.19
0.13
0.39
0.55
0.62
0.65
0.62
0.50
0.17
-0.37
-1.04
-1.65
-1.95
-1.83
-1.33
-0.64
0.02
0.47
0.67
0.68
0.61
0.50
0.35
0.15
-0.08
-0.27
-0.31
-0.10
0.32
0.83
1.22
1.33
1.11
0.63
0.02
-0.53
-0.92
-1.10
-1.08
-0.87
-0.53
-0.14
0.21
0.41
0.41
0.26
0.06
-0.09
-0.16
-0.17
-0.20
-0.29
-0.41
-0.50
-0.51
-0.48
-0.44
-0.47
-0.55
-0.65
-0.71
-0.69
-0.65
-0.61
-0.58
-0.51
-0.32
-0.02
0.32
0.53
0.50
0.22
-0.17
-0.48
-0.59
-0.49
-0.34
-0.30
-0.48
-0.86
-1.29
-1.65
-1.85
-1.96
-2.09
-2.34
-2.73
-3.21
-3.70
-4.14
-4.48
-4.74
-4.93
-5.06
-5.16
-5.29
-5.48
-5.81
-6.30
-6.92
-7.59
-8.22
-8.67
-8.89
-8.88
-8.76
-8.75
-9.14
-10.13
-11.65
-13.20
-13.92
-12.95
-9.75
-4.44
2.21
9.03
14.95
19.26
21.78
22.74
22.60
21.87
21.06
20.67
21.06
22.42
24.58
26.99
28.84
29.27
27.77
24.34
19.55
14.39
9.94
6.90
5.43
5.17
5.45
5.68
5.63
5.45
5.47
6.01
7.14
8.74
10.54
12.23
13.49
14.08
13.77
12.44
10.11
6.92
3.12
-0.97
-5.00
-8.67
-11.71
-13.96
-15.36
-15.98
-15.97
-15.54
-14.85
-14.02
-13.11
-12.17
-11.21
-10.25
-9.35
-8.62
-8.18
-8.15
-8.53
-9.21
-9.94
-10.48
-10.61
-10.29
-9.63
-8.85
-8.10
-7.48
-6.96
-6.45
-5.89
-5.30
-4.76
-4.38
-4.22
-4.25
-4.36
-4.40
-4.25
-3.89
-3.36
-2.79
-2.29
-1.92
-1.66
-1.40
-1.06
-0.61
-0.10
0.35
0.67
0.83
0.92
1.05
1.30
1.62
1.91
2.01
1.85
1.48
1.01
0.61
0.36
0.28
0.26
0.25
0.18
0.12
0.10
0.17
0.29
0.37
0.31
0.08
-0.27
-0.60
-0.79
-0.76
-0.56
-0.28
-0.06
0.05
0.07
0.07
0.14
0.33
0.60
0.87
1.03
1.04
0.91
0.72
0.60
0.63
0.82
1.10
1.34
1.45
1.36
1.13
0.84
0.59
0.43
0.34
0.28
0.22
0.15
0.10
0.07
0.03
-0.09
-0.30
-0.56
-0.79
-0.89
-0.83
-0.63
-0.38
-0.18
-0.08
-0.08
-0.15
-0.26
-0.41
-0.60
-0.85
-1.12
-1.34
-1.41
-1.26
-0.91
-0.46
-0.08
0.09
0.01
-0.25
-0.58
-0.83
-0.93
-0.90
-0.76
-0.56
-0.34
-0.10
0.11
0.24
0.24
0.12
-0.06
-0.19
-0.17
0.04
0.38
0.75
1.03
1.12
1.01
0.74
0.39
0.01
-0.32
-0.57
-0.70
-0.69
-0.55
-0.31
-0.04
0.16
0.19
0.03
-0.27
-0.56
-0.67
-0.51
-0.15
0.22
0.38
0.21
-0.22
-0.69
-0.96
-0.86
-0.43
0.15
0.67
0.98
1.02
0.87
0.61
0.30
-0.01
-0.31
-0.55
-0.66
-0.62
-0.43
-0.15
0.12
0.26
0.18
-0.12
-0.55
-0.97
-1.23
-1.22
-0.95
-0.53
-0.10
0.23
0.36
0.33
0.16
-0.05
-0.25
-0.38
-0.43
-0.38
-0.25
-0.07
0.13
0.32
0.47
0.57
0.63
0.69
0.76
0.85
0.93
0.94
0.81
0.51
0.08
-0.41
-0.83
-1.07
-1.08
-0.90
-0.60
-0.29
-0.07
0.06
0.10
0.11
0.11
0.14
0.19
0.23
0.24
0.21
0.16
0.12
0.11
0.16
0.24
0.31
0.36
0.38
0.39
0.44
0.51
0.58
0.58
0.46
0.24
0.00
-0.13
-0.06
0.21
0.57
0.87
0.99
0.89
0.62
0.24
-0.17
-0.57
-0.91
-1.11
-1.09
-0.84
-0.45
-0.09
0.06
-0.06
-0.38
-0.68
-0.79
-0.63
-0.30
0.01
0.13
-0.01
-0.32
-0.64
-0.83
-0.83
-0.69
-0.52
-0.40
-0.35
-0.32
-0.21
0.02
0.35
0.65
0.78
0.67
0.34
-0.08
-0.42
-0.57
-0.52
-0.34
-0.12
0.07
0.22
0.37
0.55
0.71
0.82
0.82
0.70
0.53
0.37
0.27
0.21
0.12
-0.03
-0.24
-0.42
-0.48
-0.35
-0.04
0.30
0.53
0.51
0.24
-0.16
-0.51
-0.66
-0.57
-0.34
-0.16
-0.14
-0.30
-0.53
-0.61
-0.42
0.03
0.59
1.03
1.20
1.10
0.84
0.57
0.41
0.34
0.34
0.33
0.31
0.30
0.30
0.27
0.14
-0.10
-0.37
-0.53
-0.48
-0.20
0.21
0.57
0.72
0.61
0.31
-0.05
-0.32
-0.45
-0.44
-0.35
-0.22
-0.11
-0.02
0.01
-0.02
-0.12
-0.26
-0.39
-0.48
-0.48
-0.39
-0.20
0.04
0.28
0.48
0.59
0.58
0.49
0.37
0.29
0.30
0.43
0.60
0.74
0.77
0.64
0.37
-0.00
-0.41
-0.80
-1.12
-1.32
-1.36
-1.21
-0.91
-0.54
-0.20
0.01
0.09
0.07
0.04
0.04
0.08
0.12
0.10
0.02
-0.07
-0.12
-0.11
-0.05
-0.02
-0.06
-0.19
-0.32
-0.40
-0.36
-0.21
-0.02
0.15
0.24
0.25
0.22
0.22
0.29
0.46
0.67
0.87
0.98
0.95
0.77
0.47
0.13
-0.16
-0.34
-0.36
-0.24
-0.03
0.20
0.40
0.52
0.58
0.62
0.71
0.86
1.06
1.19
1.18
0.96
0.59
0.21
-0.05
-0.09
0.09
0.40
0.67
0.81
0.75
0.52
0.18
-0.19
-0.53
-0.82
-1.04
-1.21
-1.31
-1.35
-1.31
-1.14
-0.86
-0.50
-0.14
0.14
0.25
0.20
0.05
-0.11
-0.22
-0.20
-0.07
0.15
0.39
0.58
0.62
0.47
0.10
-0.41
-0.93
-1.28
-1.35
-1.10
-0.65
-0.19
0.09
0.09
-0.16
-0.50
-0.74
-0.76
-0.54
-0.18
0.16
0.34
0.33
0.19
0.02
-0.06
-0.06
-0.00
0.01
-0.05
-0.16
-0.23
-0.17
0.03
0.29
0.48
0.51
0.37
0.16
0.02
0.01
0.13
0.30
0.39
0.34
0.16
-0.08
-0.27
-0.34
-0.29
-0.14
0.03
0.15
0.19
0.16
0.08
0.01
-0.07
-0.16
-0.29
-0.46
-0.64
-0.74
-0.71
-0.52
-0.24
0.03
0.19
0.20
0.08
-0.04
-0.07
0.07
0.32
0.59
0.77
0.78
0.68
0.54
0.45
0.45
0.50
0.53
0.50
0.42
0.34
0.31
0.36
0.46
0.56
0.60
0.58
0.51
0.42
0.33
0.22
0.10
-0.01
-0.03
0.05
0.22
0.37
0.39
0.20
-0.17
-0.58
-0.88
-0.97
-0.84
-0.59
-0.33
-0.13
0.04
0.24
0.50
0.79
0.99
1.02
0.87
0.63
0.44
0.41
0.53
0.68
0.72
0.53
0.11
-0.40
-0.82
-1.00
-0.88
-0.57
-0.23
-0.04
-0.06
-0.23
-0.40
-0.43
-0.28
-0.01
0.22
0.25
0.05
-0.32
-0.71
-1.01
-1.20
-1.32
-1.41
-1.51
-1.54
-1.40
-1.04
-0.47
0.18
0.73
0.99
0.89
0.47
-0.11
-0.64
-0.95
-0.99
-0.78
-0.45
-0.15
0.02
0.05
-0.02
-0.15
-0.25
-0.29
-0.24
-0.06
0.26
0.66
1.02
1.19
1.05
0.60
-0.05
-0.66
-1.01
-1.00
-0.65
-0.10
0.46
0.92
1.21
1.35
1.36
1.26
1.05
0.76
0.43
0.12
-0.13
-0.30
-0.40
-0.48
-0.54
-0.61
-0.70
-0.80
-0.90
-0.97
-0.96
-0.82
-0.53
-0.10
0.38
0.78
0.99
0.94
0.68
0.33
0.06
-0.03
0.09
0.32
0.52
0.58
0.46
0.21
-0.05
-0.24
-0.31
-0.27
-0.15
0.02
0.22
0.40
0.54
0.58
0.45
0.15
-0.27
-0.70
-1.00
-1.09
-0.94
-0.66
-0.38
-0.21
-0.22
-0.36
-0.52
-0.61
-0.56
-0.39
-0.13
0.13
0.35
0.51
0.61
0.63
0.55
0.39
0.17
-0.03
-0.10
0.00
0.27
0.60
0.84
0.88
0.67
0.26
-0.23
-0.68
-1.01
-1.21
-1.28
-1.25
-1.10
-0.78
-0.28
0.33
0.92
1.31
1.39
1.19
0.80
0.41
0.16
0.07
0.11
0.19
0.25
0.29
0.36
0.48
0.62
0.71
0.68
0.49
0.17
-0.15
-0.38
-0.42
-0.29
-0.08
0.09
0.15
0.07
-0.10
-0.24
-0.29
-0.22
-0.09
0.04
0.10
0.11
0.10
0.14
0.22
0.31
0.30
0.16
-0.08
-0.30
-0.38
-0.23
0.09
0.45
0.67
0.66
0.45
0.14
-0.14
-0.36
-0.49
-0.60
-0.68
-0.69
-0.57
-0.29
0.07
0.37
0.48
0.36
0.08
-0.20
-0.34
-0.30
-0.14
0.00
0.04
-0.04
-0.18
-0.32
-0.41
-0.46
-0.51
-0.57
-0.63
-0.69
-0.76
-0.87
-1.02
-1.17
-1.23
-1.11
-0.79
-0.30
0.23
0.65
0.87
0.86
0.67
0.42
0.20
0.04
-0.08
-0.23
-0.47
-0.76
-1.00
-1.07
-0.88
-0.50
-0.06
0.23
0.29
0.14
-0.05
-0.09
0.11
0.52
1.02
1.44
1.68
1.72
1.62
1.40
1.12
0.78
0.42
0.09
-0.14
-0.23
-0.17
-0.02
0.16
0.33
0.45
0.54
0.58
0.60
0.59
0.56
0.50
0.42
0.30
0.12
-0.13
-0.41
-0.66
-0.80
-0.78
-0.59
-0.26
0.13
0.48
0.67
0.62
0.29
-0.27
-0.91
-1.43
-1.65
-1.54
-1.18
-0.76
-0.46
-0.37
-0.43
-0.50
-0.47
-0.32
-0.13
-0.01
-0.00
-0.04
0.00
0.21
0.56
0.94
1.23
1.34
1.28
1.14
0.99
0.87
0.73
0.55
0.34
0.12
-0.07
-0.20
-0.30
-0.36
-0.37
-0.29
-0.11
0.14
0.36
0.43
0.31
0.03
-0.28
-0.51
-0.57
-0.50
-0.36
-0.22
-0.12
-0.02
0.12
0.29
0.46
0.56
0.54
0.40
0.20
0.02
-0.09
-0.12
-0.12
-0.14
-0.23
-0.37
-0.51
-0.57
-0.51
-0.34
-0.11
0.06
0.12
0.06
-0.06
-0.15
-0.18
-0.14
-0.09
-0.09
-0.14
-0.21
-0.25
-0.22
-0.13
-0.02
0.08
0.18
0.28
0.43
0.57
0.66
0.60
0.39
0.10
-0.16
-0.28
-0.23
-0.08
0.07
0.12
0.05
-0.07
-0.16
-0.20
-0.21
-0.25
-0.36
-0.49
-0.56
-0.50
-0.30
-0.04
0.19
0.31
0.34
0.34
0.38
0.46
0.53
0.50
0.34
0.09
-0.15
-0.27
-0.20
0.03
0.28
0.44
0.42
0.24
-0.00
-0.18
-0.25
-0.24
-0.23
-0.30
-0.42
-0.48
-0.40
-0.12
0.28
0.68
0.91
0.92
0.74
0.47
0.23
0.09
0.02
-0.04
-0.17
-0.40
-0.70
-0.97
-1.13
-1.09
-0.87
-0.56
-0.26
-0.05
0.07
0.15
0.25
0.36
0.43
0.35
0.08
-0.33
-0.73
-0.96
-0.93
-0.69
-0.37
-0.16
-0.13
-0.25
-0.39
-0.45
-0.42
-0.34
-0.33
-0.40
-0.51
-0.51
-0.29
0.16
0.74
1.24
1.51
1.48
1.21
0.83
0.50
0.31
0.26
0.31
0.40
0.49
0.54
0.52
0.44
0.29
0.10
-0.11
-0.30
-0.44
-0.53
-0.54
-0.48
-0.34
-0.11
0.14
0.33
0.36
0.18
-0.15
-0.51
-0.73
-0.71
-0.47
-0.14
0.13
0.26
0.24
0.19
0.24
0.41
0.65
0.82
0.80
0.59
0.28
0.02
-0.10
-0.04
0.09
0.18
0.11
-0.13
-0.44
-0.72
-0.90
-0.96
-0.94
-0.90
-0.87
-0.84
-0.79
-0.68
-0.49
-0.21
0.16
0.58
0.99
1.31
1.48
1.44
1.20
0.82
0.44
0.18
0.15
0.34
0.66
0.97
1.09
0.97
0.61
0.12
-0.36
-0.74
-0.99
-1.13
-1.19
-1.19
-1.10
-0.90
-0.62
-0.32
-0.07
0.07
0.12
0.12
0.15
0.23
0.35
0.45
0.49
0.48
0.47
0.51
0.61
0.71
0.74
0.64
0.43
0.17
-0.06
-0.21
-0.28
-0.33
-0.42
-0.55
-0.71
-0.82
-0.82
-0.67
-0.42
-0.14
0.07
0.15
0.08
-0.05
-0.17
-0.22
-0.19
-0.16
-0.21
-0.39
-0.70
-1.05
-1.34
-1.49
-1.47
-1.32
-1.07
-0.80
-0.53
-0.29
-0.10
0.03
0.13
0.25
0.41
0.66
0.96
1.24
1.42
1.46
1.35
1.15
0.88
0.53
0.07
-0.48
-1.03
-1.44
-1.57
-1.37
-0.92
-0.35
0.15
0.50
0.69
0.78
0.83
0.86
0.83
0.69
0.44
0.11
-0.19
-0.35
-0.32
-0.14
0.09
0.26
0.30
0.23
0.15
0.14
0.27
0.45
0.61
0.63
0.48
0.23
0.04
0.04
0.28
0.70
1.15
1.49
1.62
1.54
1.32
1.02
0.66
0.26
-0.18
-0.62
-0.96
-1.12
-1.05
-0.81
-0.46
-0.11
0.16
0.31
0.31
0.16
-0.11
-0.44
-0.74
-0.95
-1.06
-1.09
-1.12
-1.20
-1.31
-1.40
-1.40
-1.25
-0.98
-0.65
-0.33
-0.06
0.15
0.34
0.54
0.73
0.90
0.99
0.97
0.85
0.71
0.60
0.57
0.57
0.57
0.50
0.38
0.24
0.13
0.07
0.06
0.06
0.05
0.02
-0.01
-0.05
-0.11
-0.19
-0.29
-0.34
-0.29
-0.10
0.18
0.48
0.69
0.79
0.82
0.87
0.98
1.14
1.22
1.14
0.84
0.35
-0.19
-0.68
-1.03
-1.25
-1.37
-1.44
-1.47
-1.45
-1.35
-1.15
-0.89
-0.59
-0.30
-0.08
0.03
0.03
-0.09
-0.30
-0.54
-0.77
-0.94
-1.03
-1.03
-0.95
-0.81
-0.68
-0.61
-0.62
-0.67
-0.69
-0.62
-0.45
-0.22
0.01
0.20
0.39
0.63
0.93
1.20
1.28
1.04
0.44
-0.37
-1.10
-1.51
-1.53
-1.29
-1.07
-1.10
-1.45
-1.94
-2.27
-2.18
-1.56
-0.54
0.64
1.73
2.60
3.21
3.57
3.70
3.60
3.25
2.72
2.12
1.59
1.23
1.09
1.11
1.22
1.33
1.40
1.38
1.24
0.97
0.58
0.10
-0.38
-0.77
-0.97
-0.96
-0.73
-0.40
-0.07
0.13
0.17
0.10
0.01
0.01
0.14
0.35
0.52
0.55
0.40
0.13
-0.17
-0.44
-0.69
-0.98
-1.39
-1.92
-2.45
-2.87
-3.07
-3.04
-2.86
-2.64
-2.44
-2.29
-2.16
-2.05
-2.00
-2.07
-2.30
-2.67
-3.06
-3.34
-3.45
-3.41
-3.33
-3.38
-3.68
-4.32
-5.24
-6.26
-7.07
-7.29
-6.58
-4.76
-1.82
1.98
6.22
10.41
14.13
17.06
19.06
20.13
20.41
20.08
19.40
18.61
17.88
17.30
16.80
16.25
15.42
14.13
12.28
9.90
7.17
4.34
1.68
-0.64
-2.57
-4.12
-5.36
-6.32
-7.00
-7.35
-7.40
-7.20
-6.91
-6.71
-6.71
-6.95
-7.33
-7.69
-7.88
-7.86
-7.63
-7.32
-7.02
-6.78
-6.56
-6.28
-5.92
-5.46
-4.98
-4.56
-4.27
-4.11
-4.06
-4.05
-3.99
-3.80
-3.43
-2.87
-2.18
-1.48
-0.87
-0.43
-0.18
-0.09
-0.09
-0.09
-0.03
0.11
0.32
0.57
0.79
0.94
1.00
1.00
0.96
0.93
0.88
0.78
0.60
0.35
0.07
-0.17
-0.36
-0.48
-0.55
-0.57
-0.50
-0.34
-0.10
0.15
0.36
0.46
0.48
0.44
0.41
0.42
0.48
0.55
0.63
0.69
0.73
0.74
0.66
0.46
0.13
-0.25
-0.57
-0.70
-0.57
-0.20
0.24
0.55
0.57
0.26
-0.28
-0.86
-1.32
-1.53
-1.49
-1.26
-0.92
-0.54
-0.20
-0.01
-0.03
-0.28
-0.70
-1.16
-1.50
-1.63
-1.54
-1.32
-1.10
-0.97
-0.95
-0.99
-1.04
-1.09
-1.20
-1.39
-1.67
-1.92
-1.99
-1.77
-1.28
-0.63
0.04
0.59
1.02
1.35
1.62
1.80
1.81
1.61
1.24
0.84
0.55
0.46
0.51
0.57
0.50
0.29
0.02
-0.14
-0.06
0.30
0.83
1.37
1.74
1.82
1.58
1.06
0.36
-0.37
-1.02
-1.48
-1.72
-1.74
-1.61
-1.39
-1.16
-0.96
-0.84
-0.80
-0.87
-1.03
-1.24
-1.44
-1.56
-1.56
-1.47
-1.34
-1.23
-1.20
-1.30
-1.52
-1.84
-2.21
-2.55
-2.76
-2.81
-2.75
-2.70
-2.85
-3.32
-4.10
-5.08
-6.03
-6.79
-7.29
-7.63
-8.01
-8.63
-9.63
-10.96
-12.50
-14.01
-15.27
-16.17
-16.71
-17.06
-17.50
-18.37
-19.94
-22.32
-25.32
-28.53
-31.32
-33.10
-33.49
-32.51
-30.55
-28.24
-26.09
-24.23
-22.28
-19.52
-15.22
-9.09
-1.47
6.66
14.06
19.69
23.04
24.29
24.10
23.29
22.55
22.22
22.30
22.54
22.61
22.21
21.17
19.44
17.08
14.21
10.98
7.49
3.83
0.03
-3.81
-7.56
-10.96
-13.79
-15.95
-17.61
-19.15
-21.08
-23.67
-26.72
-29.57
-31.30
-31.32
-29.76
-27.61
-26.33
-27.20
-30.72
-36.24
-42.34
-47.36
-50.18
-50.64
-49.60
-48.60
-49.43
-53.74
-62.50
-75.49
-90.74
-104.46
-111.44
-106.45
-86.06
-50.34
-3.42
47.47
94.18
130.19
152.44
161.56
160.77
154.07
144.76
134.81
125.16
116.38
109.13
104.07
101.44
100.72
100.54
99.25
95.72
89.88
82.78
76.20
71.75
70.16
70.94
72.68
73.80
73.39
71.65
69.78
69.35
71.53
76.47
83.45
91.26
98.89
105.99
112.94
120.65
130.28
142.94
159.33
179.23
200.94
221.23
235.85
240.85
234.01
215.69
188.69
157.00
124.16
92.03
60.62
28.61
-5.68
-43.47
-84.87
-128.64
-172.13
-211.65
-243.36
-264.38
-273.70
-272.45
-263.22
-249.04
-232.41
-214.93
-197.51
-180.78
-165.35
-151.69
-139.85
-129.41
-119.65
-110.01
-100.38
-91.03
-82.20
-73.92
-65.90
-57.76
-49.31
-40.70
-32.35
-24.73
-18.08
-12.43
-7.68
-3.84
-1.06
0.43
0.66
0.05
-0.58
-0.45
0.82
2.92
4.99
6.12
5.84
4.37
2.51
1.13
0.70
1.06
1.54
1.41
0.28
-1.71
-4.01
-5.97
-7.19
-7.61
-7.46
-7.07
-6.68
-6.41
-6.27
-6.25
-6.38
-6.70
-7.20
-7.80
-8.34
-8.63
-8.55
-8.08
-7.30
-6.36
-5.48
-4.86
-4.65
-4.93
-5.66
-6.65
-7.63
-8.36
-8.68
-8.62
-8.35
-8.07
-7.89
-7.79
-7.66
-7.37
-6.91
-6.38
-5.95
-5.76
-5.84
-6.09
-6.39
-6.62
-6.78
-6.94
-7.21
-7.62
-8.10
-8.49
-8.60
-8.36
-7.87
-7.44
-7.43
-8.11
-9.54
-11.49
-13.53
-15.14
-15.88
-15.50
-14.01
-11.59
-8.58
-5.38
-2.50
-0.46
0.28
-0.61
-3.10
-6.83
-11.11
-15.22
-18.67
-21.36
-23.54
-25.51
-27.35
-28.86
-29.67
-29.61
-28.97
-28.46
-28.92
-30.94
-34.66
-39.71
-45.56
-51.80
-58.31
-65.25
-72.87
-81.26
-90.21
-99.15
-107.27
-113.73
-118.03
-120.16
-120.75
-120.74
-121.02
-122.08
-124.00
-126.77
-130.58
-135.72
-142.03
-148.28
-151.97
-149.90
-139.32
-119.05
-89.90
-54.00
-13.67
29.27
73.42
117.03
157.35
190.71
213.66
224.43
223.80
214.83
201.60
187.65
174.96
163.96
154.14
145.01
136.51
129.05
122.99
118.26
114.25
110.06
104.93
98.61
91.47
84.25
77.63
71.88
66.80
61.91
56.78
51.32
45.78
40.66
36.40
33.22
31.08
29.80
29.11
28.70
28.24
27.33
25.54
22.55
18.27
12.94
7.07
1.29
-3.85
-8.12
-11.56
-14.39
-16.77
-18.64
-19.80
-20.00
-19.19
-17.65
-15.86
-14.37
-13.43
-12.96
-12.63
-12.06
-11.11
-9.92
-8.83
-8.14
-7.87
-7.76
-7.38
-6.46
-5.04
-3.52
-2.41
-2.09
-2.58
-3.53
-4.45
-4.98
-5.05
-4.89
-4.81
-5.00
-5.40
-5.72
-5.69
-5.17
-4.24
-3.17
-2.24
-1.60
-1.24
-1.04
-0.88
-0.73
-0.67
-0.80
-1.16
-1.69
-2.27
-2.84
-3.42
-4.16
-5.12
-6.17
-6.99
-7.14
-6.32
-4.58
-2.34
-0.20
1.33
2.07
2.23
2.19
2.29
2.56
2.81
2.71
2.08
1.02
-0.13
-0.99
-1.36
-1.27
-0.89
-0.39
0.25
1.07
2.02
2.76
2.70
1.25
-1.75
-5.87
-10.03
-12.92
-13.51
-11.56
-7.66
-3.04
1.01
3.65
4.70
4.55
3.84
3.04
2.30
1.46
0.35
-1.00
-2.30
-3.20
-3.50
-3.35
-3.18
-3.44
-4.37
-5.88
-7.56
-8.92
-9.59
-9.53
-8.97
-8.33
-8.00
-8.14
-8.71
-9.45
-10.00
-10.06
-9.33
-7.59
-4.68
-0.59
4.45
9.95
15.24
19.72
23.05
25.22
26.53
27.28
27.57
27.27
26.08
23.77
20.36
16.10
11.40
6.64
2.09
-2.13
-5.88
-9.05
-11.49
-13.07
-13.77
-13.72
-13.15
-12.33
-11.49
-10.77
-10.21
-9.70
-9.11
-8.29
-7.18
-5.80
-4.31
-2.92
-1.81
-1.07
-0.66
-0.47
-0.37
-0.25
-0.09
0.11
0.38
0.70
1.05
1.36
1.49
1.28
0.67
-0.29
-1.44
-2.56
-3.47
-4.07
-4.32
-4.23
-3.77
-2.98
-1.93
-0.71
0.50
1.58
2.42
3.00
3.37
3.61
3.80
4.00
4.20
4.37
4.45
4.38
4.14
3.77
3.33
2.86
2.36
1.79
1.13
0.43
-0.21
-0.66
-0.91
-1.04
-1.18
-1.46
-1.87
-2.28
-2.49
-2.36
-1.91
-1.33
-0.83
-0.59
-0.61
-0.79
-0.97
-1.03
-0.95
-0.79
-0.65
-0.56
-0.53
-0.54
-0.55
-0.55
-0.57
-0.61
-0.69
-0.78
-0.82
-0.72
-0.43
0.03
0.57
1.02
1.23
1.17
0.91
0.60
0.38
0.30
0.29
0.25
0.13
-0.05
-0.22
-0.33
-0.38
-0.38
-0.38
-0.36
-0.26
-0.06
0.26
0.61
0.88
0.94
0.77
0.40
-0.03
-0.38
-0.48
-0.29
0.13
0.60
0.89
0.82
0.39
-0.26
-0.90
-1.33
-1.51
-1.48
-1.39
-1.32
-1.27
-1.24
-1.19
-1.18
-1.24
-1.40
-1.61
-1.78
-1.84
-1.77
-1.62
-1.43
-1.17
-0.77
-0.16
0.63
1.42
1.96
2.07
1.76
1.22
0.73
0.49
0.50
0.64
0.71
0.61
0.35
0.09
-0.03
0.01
0.13
0.16
-0.02
-0.39
-0.85
-1.19
-1.24
-0.93
-0.33
0.39
1.00
1.34
1.38
1.19
0.89
0.60
0.34
0.08
-0.24
-0.64
-1.02
-1.27
-1.30
-1.12
-0.83
-0.58
-0.50
-0.59
-0.78
-0.96
-1.03
-0.95
-0.74
-0.45
-0.14
0.16
0.44
0.69
0.93
1.17
1.39
1.59
1.72
1.76
1.67
1.46
1.17
0.86
0.57
0.38
0.31
0.34
0.38
0.27
-0.11
-0.82
-1.71
-2.52
-2.96
-2.83
-2.16
-1.18
-0.21
0.48
0.76
0.73
0.55
0.38
0.30
0.30
0.34
0.34
0.28
0.18
0.07
-0.03
-0.11
-0.17
-0.24
-0.33
-0.43
-0.50
-0.48
-0.35
-0.12
0.13
0.34
0.44
0.44
0.38
0.31
0.26
0.24
0.25
0.29
0.38
0.53
0.69
0.80
0.81
0.68
0.46
0.25
0.15
0.24
0.47
0.75
0.94
0.94
0.80
0.62
0.52
0.55
0.65
0.69
0.54
0.21
-0.17
-0.43
-0.45
-0.24
0.10
0.39
0.54
0.52
0.39
0.21
0.01
-0.22
-0.52
-0.88
-1.28
-1.64
-1.91
-2.03
-2.00
-1.83
-1.56
-1.20
-0.79
-0.35
0.06
0.38
0.54
0.50
0.29
-0.00
-0.28
-0.44
-0.48
-0.43
-0.36
-0.34
-0.39
-0.51
-0.66
-0.82
-0.97
-1.10
-1.17
-1.18
-1.12
-0.98
-0.83
-0.71
-0.62
-0.54
-0.41
-0.22
-0.02
0.11
0.06
-0.18
-0.53
-0.84
-0.98
-0.88
-0.62
-0.34
-0.20
-0.31
-0.69
-1.28
-2.00
-2.79
-3.56
-4.24
-4.74
-5.03
-5.10
-5.05
-5.01
-5.15
-5.59
-6.37
-7.46
-8.74
-10.12
-11.51
-12.86
-14.14
-15.31
-16.25
-16.71
-16.27
-14.41
-10.66
-4.88
2.50
10.45
17.60
22.64
24.79
24.03
21.06
16.98
12.90
9.62
7.50
6.51
6.37
6.72
7.23
7.73
8.25
8.97
10.13
11.84
14.04
16.44
18.66
20.39
21.49
22.14
22.70
23.63
25.26
27.70
30.74
33.95
36.80
38.88
40.03
40.41
40.52
41.07
42.77
46.16
51.36
58.01
65.32
72.35
78.22
82.39
84.65
85.12
84.16
82.45
80.93
80.82
83.28
88.97
97.74
108.52
119.71
129.89
138.36
145.54
152.72
161.55
173.21
187.76
203.75
218.36
228.16
230.07
222.43
205.49
181.28
152.77
122.78
93.15
64.44
36.29
7.90
-21.58
-52.99
-87.23
-124.86
-165.44
-206.82
-245.08
-275.40
-293.72
-298.31
-290.53
-274.21
-254.10
-234.10
-216.30
-200.97
-187.38
-174.77
-162.88
-151.83
-141.75
-132.50
-123.64
-114.67
-105.35
-95.79
-86.45
-77.87
-70.45
-64.23
-58.90
-53.95
-48.91
-43.55
-38.02
-32.76
-28.25
-24.78
-22.28
-20.41
-18.68
-16.72
-14.38
-11.80
-9.26
-7.08
-5.45
-4.38
-3.70
-3.17
-2.54
-1.68
-0.62
0.46
1.33
1.79
1.77
1.38
0.80
0.27
-0.08
-0.23
-0.29
-0.38
-0.57
-0.86
-1.12
-1.21
-1.06
-0.67
-0.15
0.37
0.78
1.05
1.18
1.22
1.19
1.07
0.88
0.61
0.29
-0.04
-0.27
-0.36
-0.26
0.01
0.35
0.61
0.69
0.55
0.31
0.11
0.10
0.35
0.75
1.16
1.43
1.51
1.43
1.26
1.06
0.84
0.57
0.26
-0.02
-0.22
-0.29
-0.28
-0.25
-0.31
-0.48
-0.72
-0.95
-1.07
-1.05
-0.90
-0.68
-0.48
-0.34
-0.33
-0.41
-0.57
-0.73
-0.83
-0.84
-0.76
-0.62
-0.46
-0.28
-0.07
0.19
0.51
0.87
1.23
1.56
1.81
1.98
2.04
2.01
1.96
1.95
2.04
2.27
2.65
3.11
3.57
3.93
4.10
4.06
3.86
3.65
3.59
3.77
4.18
4.69
5.12
5.40
5.56
5.68
5.87
6.09
6.23
6.12
5.65
4.77
3.43
1.57
-0.88
-3.87
-7.14
-10.22
-12.56
-13.74
-13.67
-12.62
-11.01
-9.29
-7.70
-6.34
-5.21
-4.36
-3.86
-3.80
-4.11
-4.56
-4.82
-4.59
-3.77
-2.54
-1.23
-0.23
0.19
0.01
-0.60
-1.37
-2.07
-2.60
-3.01
-3.38
-3.80
-4.17
-4.33
-4.06
-3.28
-2.04
-0.60
0.76
1.84
2.55
2.97
3.20
3.25
3.10
2.65
1.90
0.96
0.07
-0.52
-0.61
-0.20
0.53
1.38
2.13
2.70
3.09
3.36
3.55
3.67
3.71
3.67
3.59
3.53
3.51
3.50
3.39
3.09
2.57
1.89
1.17
0.57
0.15
-0.06
-0.10
-0.01
0.16
0.39
0.63
0.82
0.90
0.81
0.54
0.16
-0.26
-0.61
-0.85
-0.97
-1.00
-0.97
-0.89
-0.79
-0.66
-0.51
-0.35
-0.15
0.07
0.32
0.53
0.66
0.67
0.52
0.26
-0.03
-0.25
-0.32
-0.19
0.10
0.51
0.95
1.32
1.48
1.35
0.90
0.21
-0.53
-1.13
-1.43
-1.39
-1.08
-0.64
-0.17
0.26
0.61
0.89
1.03
0.99
0.76
0.37
-0.07
-0.44
-0.65
-0.68
-0.58
-0.45
-0.37
-0.37
-0.40
-0.37
-0.25
-0.05
0.15
0.24
0.19
0.03
-0.13
-0.18
-0.10
0.04
0.11
0.01
-0.28
-0.68
-1.04
-1.29
-1.40
-1.43
-1.41
-1.39
-1.33
-1.19
-0.89
-0.44
0.11
0.63
0.97
1.03
0.78
0.33
-0.12
-0.38
-0.32
0.01
0.45
0.81
0.98
1.00
1.00
1.12
1.41
1.76
2.03
2.06
1.84
1.48
1.10
0.86
0.75
0.71
0.66
0.51
0.30
0.09
-0.07
-0.15
-0.21
-0.31
-0.49
-0.72
-0.93
-1.04
-1.00
-0.78
-0.44
-0.03
0.36
0.66
0.82
0.83
0.73
0.60
0.51
0.51
0.57
0.64
0.64
0.50
0.18
-0.29
-0.85
-1.44
-1.95
-2.29
-2.41
-2.31
-2.09
-1.88
-1.79
-1.91
-2.19
-2.53
-2.76
-2.77
-2.54
-2.10
-1.58
-1.10
-0.80
-0.83
-1.27
-2.11
-3.15
-3.95
-3.97
-2.78
-0.25
3.26
7.09
10.45
12.71
13.57
13.06
11.42
9.02
6.25
3.53
1.20
-0.45
-1.36
-1.65
-1.58
-1.48
-1.58
-1.93
-2.45
-2.97
-3.36
-3.56
-3.61
-3.60
-3.57
-3.56
-3.50
-3.36
-3.11
-2.80
-2.53
-2.38
-2.34
-2.29
-2.08
-1.63
-0.96
-0.24
0.32
0.58
0.55
0.41
0.35
0.54
0.98
1.51
1.94
2.09
1.93
1.55
1.14
0.83
0.68
0.62
0.52
0.29
-0.09
-0.47
-0.70
-0.62
-0.23
0.34
0.89
1.24
1.33
1.25
1.16
1.16
1.27
1.38
1.37
1.18
0.84
0.48
0.22
0.11
0.13
0.21
0.29
0.34
0.37
0.40
0.43
0.44
0.41
0.34
0.28
0.29
0.37
0.51
0.64
0.70
0.64
0.47
0.20
-0.14
-0.52
-0.90
-1.21
-1.35
-1.28
-0.99
-0.55
-0.08
0.29
0.46
0.42
0.21
-0.10
-0.39
-0.60
-0.70
-0.72
-0.69
-0.66
-0.63
-0.58
-0.48
-0.34
-0.21
-0.12
-0.11
-0.11
-0.05
0.15
0.46
0.77
0.94
0.87
0.58
0.20
-0.11
-0.21
-0.07
0.25
0.60
0.83
0.86
0.71
0.44
0.16
-0.05
-0.16
-0.20
-0.19
-0.15
-0.08
0.01
0.14
0.24
0.28
0.22
0.10
-0.03
-0.11
-0.11
-0.03
0.08
0.21
0.35
0.50
0.68
0.84
0.92
0.89
0.74
0.53
0.35
0.23
0.19
0.17
0.11
-0.04
-0.27
-0.55
-0.79
-0.94
-0.98
-0.97
-1.01
-1.18
-1.53
-2.00
-2.46
-2.74
-2.74
-2.45
-2.01
-1.58
-1.33
-1.33
-1.53
-1.82
-2.05
-2.11
-1.96
-1.61
-1.16
-0.73
-0.40
-0.20
-0.10
-0.00
0.16
0.44
0.83
1.25
1.60
1.82
1.86
1.77
1.60
1.43
1.29
1.19
1.11
1.00
0.83
0.63
0.46
0.41
0.53
0.81
1.13
1.38
1.50
1.50
1.50
1.62
1.92
2.35
2.73
2.90
2.74
2.26
1.58
0.90
0.38
0.08
-0.02
-0.03
-0.09
-0.29
-0.65
-1.13
-1.63
-2.06
-2.41
-2.69
-2.98
-3.34
-3.79
-4.29
-4.83
-5.37
-5.95
-6.65
-7.52
-8.61
-9.91
-11.32
-12.70
-13.96
-15.06
-16.05
-17.11
-18.45
-20.21
-22.43
-24.99
-27.65
-30.19
-32.52
-34.79
-37.29
-40.37
-44.21
-48.73
-53.64
-58.57
-63.34
-68.07
-73.16
-79.09
-86.16
-94.38
-103.51
-113.29
-123.59
-134.32
-145.27
-155.78
-164.76
-170.96
-173.42
-171.96
-167.31
-160.87
-154.19
-148.47
-144.45
-142.43
-142.33
-143.65
-145.19
-144.96
-140.55
-129.90
-112.24
-88.47
-60.91
-32.24
-4.39
22.18
48.53
76.65
108.63
145.68
187.42
231.34
272.98
306.82
327.82
333.31
324.03
303.83
278.17
251.95
227.92
206.46
186.53
167.13
148.25
130.79
115.78
103.38
92.71
82.33
71.16
59.23
47.65
38.04
31.55
28.23
26.98
26.14
24.26
20.75
15.97
10.90
6.52
3.42
1.55
0.48
-0.35
-1.34
-2.61
-4.01
-5.28
-6.17
-6.53
-6.40
-5.98
-5.58
-5.50
-5.90
-6.69
-7.58
-8.20
-8.31
-7.91
-7.28
-6.77
-6.66
-6.94
-7.40
-7.75
-7.79
-7.52
-7.17
-6.96
-7.02
-7.32
-7.68
-7.87
-7.76
-7.29
-6.54
-5.67
-4.89
-4.37
-4.18
-4.28
-4.43
-4.38
-3.87
-2.81
-1.28
0.51
2.27
3.76
4.76
5.18
4.97
4.25
3.24
2.29
1.69
1.62
2.01
2.56
2.92
2.84
2.27
1.39
0.52
-0.15
-0.52
-0.69
-0.81
-1.03
-1.34
-1.66
-1.80
-1.63
-1.14
-0.41
0.35
0.95
1.25
1.23
0.99
0.63
0.29
0.01
-0.19
-0.33
-0.39
-0.30
0.03
0.67
1.60
2.70
3.74
4.49
4.80
4.64
4.15
3.51
2.89
2.40
2.04
1.78
1.56
1.35
1.14
0.91
0.62
0.26
-0.16
-0.57
-0.88
-1.04
-1.04
-0.94
-0.85
-0.84
-0.92
-1.06
-1.17
-1.21
-1.18
-1.11
-1.06
-1.02
-0.99
-0.92
-0.78
-0.57
-0.30
0.03
0.39
0.77
1.10
1.30
1.35
1.26
1.10
0.98
0.96
1.04
1.15
1.23
1.23
1.17
1.02
0.72
0.18
-0.66
-1.73
-2.84
-3.76
-4.33
-4.53
-4.53
-4.53
-4.62
-4.68
-4.44
-3.63
-2.12
-0.04
2.24
4.24
5.54
5.99
5.69
4.94
4.11
3.42
2.88
2.39
1.79
1.07
0.33
-0.22
-0.47
-0.47
-0.43
-0.53
-0.87
-1.35
-1.76
-1.89
-1.67
-1.20
-0.65
-0.21
0.01
0.00
-0.15
-0.29
-0.32
-0.15
0.21
0.67
1.09
1.32
1.33
1.15
0.95
0.85
0.91
1.09
1.27
1.31
1.19
0.94
0.65
0.40
0.21
0.05
-0.11
-0.29
-0.45
-0.55
-0.56
-0.53
-0.51
-0.54
-0.63
-0.73
-0.80
-0.80
-0.74
-0.68
-0.68
-0.78
-0.94
-1.07
-1.05
-0.82
-0.40
0.10
0.51
0.68
0.53
0.10
-0.48
-1.04
-1.43
-1.59
-1.52
-1.31
-1.06
-0.84
-0.68
-0.58
-0.52
-0.51
-0.56
-0.66
-0.75
-0.76
-0.63
-0.32
0.11
0.53
0.83
0.92
0.79
0.52
0.20
-0.08
-0.27
-0.35
-0.33
-0.27
-0.17
-0.07
0.05
0.18
0.30
0.39
0.40
0.32
0.14
-0.07
-0.24
-0.25
-0.05
0.35
0.87
1.40
1.83
2.10
2.23
2.29
2.36
2.49
2.66
2.83
2.88
2.77
2.48
2.10
1.72
1.46
1.34
1.33
1.32
1.21
0.99
0.72
0.48
0.38
0.42
0.51
0.55
0.48
0.32
0.12
-0.03
-0.13
-0.25
-0.48
-0.88
-1.39
-1.83
-2.05
-1.94
-1.54
-1.05
-0.72
-0.71
-1.08
-1.65
-2.16
-2.36
-2.13
-1.60
-1.05
-0.79
-1.05
-1.83
-2.99
-4.27
-5.37
-5.94
-5.64
-4.26
-1.88
1.04
3.68
5.12
4.77
2.64
-0.59
-3.88
-6.31
-7.40
-7.31
-6.60
-5.88
-5.55
-5.64
-5.96
-6.26
-6.40
-6.35
-6.21
-6.08
-6.01
-6.03
-6.17
-6.44
-6.87
-7.50
-8.30
-9.21
-10.04
-10.62
-10.76
-10.37
-9.49
-8.31
-7.04
-5.86
-4.78
-3.69
-2.35
-0.54
1.82
4.65
7.77
10.94
13.92
16.50
18.50
19.80
20.31
20.06
19.16
17.80
16.17
14.49
12.91
11.51
10.33
9.32
8.41
7.53
6.68
5.91
5.31
4.96
4.87
4.92
4.96
4.78
4.28
3.41
2.26
0.94
-0.37
-1.51
-2.35
-2.75
-2.65
-2.06
-1.12
-0.02
0.98
1.67
1.89
1.63
0.99
0.09
-0.86
-1.71
-2.31
-2.55
-2.35
-1.75
-0.90
-0.03
0.59
0.80
0.53
-0.10
-0.94
-1.82
-2.65
-3.44
-4.16
-4.80
-5.30
-5.58
-5.63
-5.51
-5.34
-5.18
-5.03
-4.75
-4.22
-3.34
-2.14
-0.79
0.51
1.61
2.41
2.91
3.17
3.22
3.12
2.92
2.64
2.29
1.83
1.21
0.42
-0.46
-1.26
-1.73
-1.69
-1.12
-0.18
0.86
1.72
2.23
2.35
2.17
1.87
1.58
1.37
1.30
1.38
1.58
1.91
2.35
2.82
3.26
3.56
3.64
3.48
3.13
2.71
2.33
2.05
1.83
1.61
1.31
0.85
0.29
-0.29
-0.76
-1.04
-1.09
-1.00
-0.90
-0.89
-1.03
-1.28
-1.55
-1.73
-1.79
-1.78
-1.83
-2.00
-2.27
-2.51
-2.54
-2.30
-1.86
-1.43
-1.23
-1.37
-1.81
-2.36
-2.80
-2.99
-2.92
-2.67
-2.36
-2.08
-1.86
-1.71
-1.61
-1.56
-1.55
-1.58
-1.60
-1.57
-1.48
-1.30
-1.03
-0.70
-0.33
0.02
0.30
0.46
0.44
0.27
0.00
-0.25
-0.39
-0.36
-0.21
-0.02
0.13
0.20
0.23
0.31
0.48
0.76
1.10
1.43
1.70
1.84
1.82
1.62
1.24
0.75
0.27
-0.09
-0.26
-0.24
-0.11
0.02
0.06
-0.03
-0.23
-0.45
-0.62
-0.68
-0.59
-0.36
-0.07
0.20
0.37
0.39
0.27
0.09
-0.09
-0.19
-0.23
-0.24
-0.29
-0.43
-0.63
-0.85
-0.99
-1.01
-0.93
-0.81
-0.71
-0.67
-0.66
-0.64
-0.57
-0.43
-0.29
-0.22
-0.24
-0.33
-0.39
-0.32
-0.08
0.28
0.62
0.85
0.91
0.85
0.78
0.75
0.74
0.71
0.59
0.39
0.17
0.02
-0.05
-0.07
-0.13
-0.31
-0.64
-1.04
-1.41
-1.64
-1.68
-1.54
-1.30
-1.05
-0.84
-0.66
-0.44
-0.14
0.25
0.67
0.98
1.09
0.96
0.68
0.39
0.23
0.26
0.45
0.72
0.94
1.03
0.96
0.74
0.46
0.18
-0.01
-0.07
-0.00
0.16
0.36
0.51
0.58
0.54
0.43
0.26
0.06
-0.18
-0.44
-0.70
-0.88
-0.89
-0.68
-0.29
0.13
0.46
0.57
0.47
0.26
0.05
-0.06
-0.09
-0.08
-0.08
-0.09
-0.11
-0.12
-0.12
-0.16
-0.24
-0.35
-0.42
-0.40
-0.29
-0.12
0.03
0.09
0.05
-0.06
-0.17
-0.21
-0.18
-0.08
0.04
0.14
0.16
0.10
-0.03
-0.20
-0.36
-0.48
-0.52
-0.45
-0.29
-0.04
0.22
0.42
0.49
0.40
0.18
-0.09
-0.34
-0.50
-0.58
-0.61
-0.67
-0.79
-0.99
-1.21
-1.42
-1.58
-1.69
-1.78
-1.84
-1.86
-1.81
-1.66
-1.42
-1.10
-0.75
-0.41
-0.11
0.13
0.29
0.35
0.33
0.27
0.21
0.22
0.31
0.48
0.68
0.89
1.08
1.24
1.41
1.57
1.74
1.91
2.07
2.22
2.33
2.37
2.30
2.13
1.98
1.94
2.12
2.53
3.04
3.51
3.82
3.93
3.92
3.90
3.92
3.97
3.98
3.88
3.65
3.37
3.12
2.94
2.81
2.69
2.56
2.50
2.58
2.78
2.95
2.79
2.04
0.65
-1.18
-3.02
-4.41
-5.08
-4.99
-4.32
-3.32
-2.12
-0.80
0.59
1.90
2.82
3.10
2.82
2.47
2.93
5.03
9.11
14.75
20.85
26.00
29.03
29.39
27.23
23.19
18.10
12.67
7.39
2.53
-1.83
-5.74
-9.35
-12.90
-16.80
-21.53
-27.57
-35.15
-44.05
-53.49
-62.33
-69.45
-74.16
-76.33
-76.18
-73.95
-69.60
-62.96
-54.01
-43.22
-31.58
-20.23
-9.92
-0.74
7.79
16.33
25.21
34.14
42.34
48.87
52.97
54.26
52.84
49.19
44.05
38.28
32.67
27.72
23.59
20.12
17.01
14.02
11.03
8.08
5.21
2.44
-0.23
-2.74
-4.92
-6.54
-7.44
-7.64
-7.40
-7.08
-6.92
-6.92
-6.83
-6.31
-5.18
-3.50
-1.63
0.01
1.14
1.85
2.65
4.33
7.76
13.49
21.60
31.60
42.58
53.49
63.45
71.90
78.67
83.86
87.74
90.60
92.76
94.47
96.06
97.91
100.54
104.58
110.65
119.21
130.37
143.83
158.74
173.80
187.40
197.91
204.13
205.81
204.01
200.96
199.36
201.10
206.33
213.05
217.81
217.12
208.81
192.78
170.65
144.84
117.45
89.65
61.82
33.86
5.77
-22.44
-50.95
-80.57
-112.66
-148.45
-187.94
-229.06
-267.63
-298.40
-316.89
-321.09
-312.26
-294.29
-272.08
-249.71
-229.38
-211.38
-194.91
-179.26
-164.35
-150.70
-138.96
-129.33
-121.38
-114.25
-107.11
-99.49
-91.51
-83.71
-76.66
-70.63
-65.38
-60.30
-54.72
-48.30
-41.21
-34.15
-27.94
-23.26
-20.28
-18.62
-17.57
-16.34
-14.46
-11.89
-9.00
-6.31
-4.22
-2.90
-2.19
-1.83
-1.60
-1.42
-1.29
-1.27
-1.36
-1.49
-1.59
-1.66
-1.77
-2.06
-2.60
-3.43
-4.45
-5.51
-6.49
-7.33
-8.06
-8.83
-9.82
-11.18
-12.90
-14.82
-16.64
-18.07
-18.94
-19.38
-19.83
-20.84
-22.90
-26.15
-30.22
-34.31
-37.39
-38.57
-37.44
-34.21
-29.67
-24.92
-21.02
-18.68
-18.11
-18.95
-20.45
-21.72
-21.99
-20.92
-18.58
-15.32
-11.49
-7.36
-3.11
0.99
4.53
6.97
7.95
7.55
6.50
6.01
7.54
12.31
21.03
33.70
49.54
66.88
83.39
96.48
104.02
105.08
100.23
91.34
80.86
70.86
62.28
54.84
47.42
38.75
28.18
16.07
3.72
-7.14
-15.15
-19.76
-21.44
-21.35
-20.75
-20.43
-20.53
-20.78
-20.88
-20.89
-21.14
-21.92
-23.15
-24.22
-24.24
-22.53
-19.01
-14.30
-9.47
-5.54
-3.08
-2.07
-2.01
-2.25
-2.31
-1.99
-1.39
-0.72
-0.17
0.20
0.39
0.47
0.43
0.26
-0.09
-0.58
-1.14
-1.69
-2.14
-2.48
-2.72
-2.92
-3.07
-3.11
-2.98
-2.60
-2.00
-1.27
-0.57
-0.04
0.24
0.29
0.22
0.16
0.21
0.39
0.62
0.82
0.93
1.02
1.19
1.53
2.04
2.61
3.06
3.26
3.19
3.01
2.92
3.11
3.58
4.19
4.75
5.09
5.16
5.04
4.81
4.54
4.24
3.89
3.46
2.99
2.54
2.17
1.95
1.84
1.78
1.68
1.45
1.05
0.49
-0.14
-0.71
-1.08
-1.21
-1.11
-0.91
-0.77
-0.81
-1.05
-1.43
-1.86
-2.25
-2.58
-2.86
-3.11
-3.32
-3.45
-3.48
-3.42
-3.33
-3.32
-3.45
-3.71
-3.95
-4.00
-3.71
-3.06
-2.13
-1.09
-0.11
0.76
1.57
2.41
3.33
4.24
4.99
5.42
5.42
5.02
4.35
3.57
2.77
2.01
1.30
0.65
0.11
-0.31
-0.59
-0.83
-1.13
-1.56
-2.12
-2.72
-3.26
-3.69
-4.03
-4.36
-4.73
-5.14
-5.48
-5.66
-5.59
-5.29
-4.85
-4.38
-4.00
-3.72
-3.49
-3.21
-2.81
-2.29
-1.70
-1.18
-0.81
-0.66
-0.69
-0.86
-1.09
-1.34
-1.59
-1.83
-2.02
-2.12
-2.09
-1.91
-1.61
-1.23
-0.79
-0.28
0.30
1.02
1.88
2.90
4.01
5.12
6.11
6.86
7.31
7.45
7.28
6.89
6.34
5.73
5.10
4.46
3.80
3.08
2.31
1.55
0.90
0.44
0.17
0.04
-0.05
-0.17
-0.29
-0.36
-0.35
-0.28
-0.25
-0.36
-0.62
-0.93
-1.15
-1.17
-0.99
-0.73
-0.53
-0.47
-0.49
-0.49
-0.38
-0.15
0.10
0.28
0.37
0.44
0.63
1.03
1.59
2.12
2.42
2.36
1.97
1.44
0.96
0.66
0.54
0.51
0.47
0.36
0.20
0.03
-0.10
-0.20
-0.28
-0.37
-0.47
-0.56
-0.64
-0.73
-0.81
-0.90
-0.96
-0.99
-0.98
-1.00
-1.06
-1.16
-1.24
-1.19
-0.98
-0.61
-0.18
0.17
0.36
0.35
0.25
0.18
0.22
0.38
0.59
0.73
0.73
0.54
0.26
-0.04
-0.27
-0.40
-0.48
-0.58
-0.71
-0.85
-0.88
-0.74
-0.45
-0.11
0.12
0.13
-0.06
-0.32
-0.48
-0.41
-0.13
0.22
0.46
0.48
0.27
-0.07
-0.39
-0.60
-0.67
-0.67
-0.67
-0.70
-0.76
-0.78
-0.73
-0.58
-0.36
-0.09
0.17
0.44
0.70
1.00
1.30
1.55
1.62
1.46
1.06
0.55
0.09
-0.16
-0.14
0.08
0.38
0.62
0.74
0.80
0.84
0.90
0.95
0.92
0.77
0.55
0.35
0.29
0.44
0.75
1.11
1.36
1.36
1.10
0.66
0.19
-0.21
-0.45
-0.54
-0.55
-0.53
-0.54
-0.56
-0.60
-0.65
-0.70
-0.74
-0.75
-0.65
-0.45
-0.16
0.14
0.34
0.39
0.28
0.10
-0.07
-0.16
-0.16
-0.10
-0.05
-0.07
-0.22
-0.51
-0.92
-1.40
-1.86
-2.19
-2.36
-2.34
-2.17
-1.86
-1.45
-0.93
-0.30
0.35
0.90
1.19
1.16
0.87
0.50
0.26
0.29
0.57
0.98
1.34
1.50
1.45
1.26
1.05
0.90
0.80
0.70
0.55
0.34
0.16
0.11
0.26
0.60
1.00
1.28
1.29
1.01
0.52
0.00
-0.38
-0.54
-0.51
-0.40
-0.32
-0.32
-0.36
-0.38
-0.33
-0.21
-0.10
-0.03
-0.01
0.04
0.22
0.56
1.00
1.37
1.51
1.29
0.76
0.08
-0.50
-0.80
-0.74
-0.39
0.08
0.48
0.71
0.72
0.57
0.33
0.05
-0.22
-0.48
-0.71
-0.88
-0.93
-0.83
-0.59
-0.27
0.03
0.24
0.32
0.26
0.10
-0.12
-0.37
-0.59
-0.74
-0.79
-0.75
-0.65
-0.54
-0.48
-0.48
-0.51
-0.52
-0.45
-0.28
-0.06
0.19
0.41
0.61
0.81
0.99
1.14
1.21
1.12
0.85
0.43
-0.08
-0.59
-0.98
-1.18
-1.13
-0.86
-0.46
-0.06
0.18
0.17
-0.06
-0.40
-0.70
-0.82
-0.72
-0.42
-0.02
0.39
0.72
0.91
0.96
0.88
0.73
0.54
0.32
0.10
-0.13
-0.33
-0.47
-0.49
-0.38
-0.16
0.11
0.31
0.38
0.29
0.06
-0.22
-0.47
-0.62
-0.64
-0.52
-0.30
-0.00
0.32
0.62
0.83
0.90
0.78
0.48
0.07
-0.32
-0.58
-0.63
-0.48
-0.20
0.05
0.15
0.06
-0.17
-0.42
-0.56
-0.53
-0.36
-0.15
0.00
0.08
0.14
0.25
0.45
0.67
0.79
0.69
0.38
-0.01
-0.31
-0.37
-0.18
0.13
0.35
0.33
0.04
-0.41
-0.83
-1.03
-0.90
-0.51
-0.01
0.43
0.65
0.64
0.49
0.33
0.28
0.41
0.69
1.05
1.39
1.65
1.83
1.94
2.04
2.18
2.34
2.51
2.60
2.60
2.47
2.24
1.97
1.70
1.44
1.19
0.96
0.74
0.56
0.39
0.20
-0.04
-0.36
-0.76
-1.17
-1.49
-1.64
-1.60
-1.37
-1.02
-0.64
-0.33
-0.17
-0.20
-0.41
-0.71
-0.97
-1.07
-0.98
-0.77
-0.55
-0.42
-0.44
-0.59
-0.79
-0.99
-1.15
-1.23
-1.24
-1.15
-0.96
-0.71
-0.51
-0.45
-0.60
-0.94
-1.35
-1.70
-1.87
-1.83
-1.60
-1.25
-0.85
-0.47
-0.16
0.06
0.16
0.11
-0.08
-0.39
-0.74
-1.07
-1.28
-1.36
-1.32
-1.24
-1.19
-1.22
-1.29
-1.37
-1.36
-1.26
-1.09
-0.91
-0.77
-0.72
-0.77
-0.88
-1.04
-1.24
-1.50
-1.83
-2.27
-2.82
-3.45
-4.08
-4.63
-4.95
-4.97
-4.66
-4.04
-3.20
-2.25
-1.31
-0.51
0.09
0.47
0.70
0.89
1.14
1.53
2.01
2.53
2.99
3.33
3.52
3.58
3.53
3.36
3.10
2.80
2.51
2.34
2.36
2.66
3.23
4.05
5.06
6.16
7.27
8.32
9.26
10.04
10.60
10.89
10.82
10.34
9.40
8.06
6.39
4.49
2.51
0.57
-1.20
-2.67
-3.77
-4.46
-4.79
-4.83
-4.68
-4.43
-4.16
-3.98
-3.94
-4.07
-4.31
-4.51
-4.52
-4.21
-3.59
-2.79
-2.03
-1.50
-1.28
-1.32
-1.50
-1.66
-1.72
-1.66
-1.53
-1.38
-1.21
-1.00
-0.71
-0.33
0.07
0.36
0.44
0.27
-0.05
-0.33
-0.39
-0.13
0.36
0.90
1.28
1.38
1.23
0.97
0.75
0.66
0.70
0.76
0.75
0.62
0.47
0.40
0.54
0.92
1.42
1.90
2.21
2.34
2.41
2.59
3.04
3.76
4.63
5.42
5.94
6.11
5.99
5.78
5.67
5.81
6.24
6.93
7.81
8.75
9.63
10.34
10.81
10.96
10.77
10.23
9.37
8.27
7.00
5.63
4.16
2.53
0.65
-1.44
-3.60
-5.58
-7.11
-8.13
-8.73
-9.15
-9.60
-10.12
-10.61
-10.94
-11.03
-10.91
-10.67
-10.36
-9.94
-9.36
-8.62
-7.80
-7.07
-6.55
-6.24
-6.06
-5.91
-5.72
-5.54
-5.38
-5.24
-5.04
-4.69
-4.18
-3.61
-3.10
-2.80
-2.74
-2.90
-3.13
-3.31
-3.31
-3.05
-2.57
-1.98
-1.47
-1.23
-1.39
-1.98
-2.88
-3.83
-4.45
-4.38
-3.38
-1.47
1.00
3.47
5.34
6.22
6.08
5.24
4.17
3.27
2.73
2.48
2.35
2.22
2.05
1.90
1.82
1.78
1.68
1.42
0.95
0.30
-0.38
-0.91
-1.17
-1.10
-0.78
-0.35
-0.00
0.08
-0.17
-0.74
-1.43
-2.00
-2.20
-1.92
-1.22
-0.33
0.49
1.04
1.30
1.38
1.44
1.58
1.77
1.95
2.02
1.95
1.82
1.67
1.55
1.45
1.31
1.11
0.87
0.60
0.36
0.17
0.03
-0.06
-0.09
-0.05
0.08
0.30
0.56
0.75
0.77
0.54
0.08
-0.53
-1.12
-1.53
-1.69
-1.59
-1.32
-1.00
-0.70
-0.45
-0.24
-0.03
0.15
0.28
0.35
0.36
0.33
0.31
0.27
0.19
0.02
-0.22
-0.45
-0.56
-0.47
-0.18
0.20
0.51
0.63
0.52
0.28
0.03
-0.09
-0.04
0.13
0.32
0.44
0.48
0.49
0.51
0.57
0.64
0.66
0.59
0.48
0.41
0.47
0.67
0.89
1.00
0.87
0.49
-0.02
-0.50
-0.81
-0.89
-0.78
-0.60
-0.42
-0.29
-0.25
-0.28
-0.38
-0.52
-0.66
-0.75
-0.75
-0.63
-0.41
-0.18
-0.02
0.03
-0.01
-0.08
-0.08
0.05
0.30
0.60
0.84
0.94
0.92
0.84
0.76
0.74
0.72
0.63
0.42
0.11
-0.20
-0.39
-0.40
-0.26
-0.07
0.04
0.06
0.01
-0.00
0.11
0.37
0.70
0.96
1.04
0.93
0.69
0.47
0.37
0.43
0.57
0.68
0.62
0.38
0.05
-0.23
-0.33
-0.27
-0.13
-0.08
-0.21
-0.49
-0.76
-0.84
-0.61
-0.11
0.49
0.98
1.23
1.20
0.98
0.72
0.52
0.40
0.32
0.21
0.05
-0.14
-0.31
-0.41
-0.44
-0.42
-0.39
-0.38
-0.36
-0.30
-0.16
0.03
0.23
0.37
0.40
0.36
0.31
0.32
0.38
0.42
0.35
0.11
-0.28
-0.72
-1.09
-1.30
-1.32
-1.21
-1.02
-0.81
-0.57
-0.25
0.14
0.58
1.00
1.31
1.48
1.52
1.50
1.45
1.38
1.26
1.08
0.83
0.55
0.29
0.05
-0.19
-0.44
-0.64
-0.69
-0.50
-0.03
0.61
1.18
1.45
1.33
0.88
0.28
-0.22
-0.50
-0.53
-0.42
-0.32
-0.33
-0.49
-0.74
-1.01
-1.19
-1.26
-1.21
-1.09
-0.94
-0.78
-0.57
-0.28
0.10
0.52
0.91
1.21
1.38
1.48
1.58
1.72
1.88
1.97
1.89
1.59
1.12
0.60
0.19
-0.05
-0.13
-0.15
-0.19
-0.32
-0.51
-0.70
-0.84
-0.92
-0.94
-0.93
-0.91
-0.85
-0.77
-0.68
-0.61
-0.56
-0.54
-0.55
-0.61
-0.75
-0.96
-1.22
-1.42
-1.48
-1.32
-0.96
-0.49
-0.02
0.34
0.55
0.58
0.44
0.17
-0.16
-0.49
-0.71
-0.76
-0.65
-0.45
-0.25
-0.13
-0.11
-0.18
-0.29
-0.39
-0.49
-0.57
-0.63
-0.63
-0.56
-0.40
-0.16
0.13
0.44
0.73
0.97
1.15
1.22
1.19
1.06
0.86
0.63
0.41
0.20
0.02
-0.13
-0.21
-0.18
-0.01
0.30
0.66
0.97
1.14
1.15
1.04
0.93
0.88
0.92
0.99
1.00
0.90
0.69
0.41
0.16
0.01
-0.00
0.10
0.26
0.36
0.34
0.18
-0.07
-0.27
-0.31
-0.16
0.12
0.34
0.34
0.06
-0.40
-0.84
-1.07
-1.00
-0.70
-0.36
-0.16
-0.19
-0.44
-0.77
-1.04
-1.15
-1.13
-1.05
-0.98
-0.97
-0.95
-0.84
-0.59
-0.22
0.17
0.46
0.56
0.50
0.39
0.36
0.48
0.72
0.98
1.13
1.10
0.88
0.53
0.11
-0.32
-0.71
-0.99
-1.08
-0.94
-0.55
-0.00
0.55
0.95
1.11
1.05
0.89
0.78
0.80
0.91
1.02
1.00
0.82
0.55
0.31
0.21
0.24
0.32
0.30
0.13
-0.15
-0.43
-0.59
-0.58
-0.47
-0.34
-0.29
-0.32
-0.35
-0.31
-0.13
0.14
0.43
0.65
0.79
0.85
0.87
0.88
0.86
0.78
0.64
0.46
0.30
0.20
0.18
0.20
0.21
0.19
0.14
0.12
0.14
0.18
0.16
-0.00
-0.33
-0.73
-1.10
-1.33
-1.41
-1.39
-1.32
-1.20
-0.99
-0.61
-0.12
0.38
0.71
0.74
0.49
0.08
-0.32
-0.57
-0.67
-0.67
-0.66
-0.67
-0.70
-0.71
-0.70
-0.67
-0.66
-0.63
-0.55
-0.37
-0.08
0.26
0.57
0.75
0.76
0.59
0.32
0.04
-0.15
-0.18
-0.03
0.25
0.59
0.84
0.93
0.84
0.61
0.37
0.22
0.22
0.34
0.49
0.57
0.53
0.37
0.15
-0.11
-0.38
-0.66
-0.91
-1.07
-1.04
-0.79
-0.38
0.05
0.32
0.31
0.05
-0.34
-0.69
-0.90
-0.96
-0.93
-0.87
-0.83
-0.79
-0.73
-0.64
-0.54
-0.45
-0.37
-0.26
-0.11
0.09
0.33
0.57
0.79
0.98
1.13
1.19
1.13
0.91
0.57
0.18
-0.16
-0.42
-0.59
-0.71
-0.82
-0.85
-0.75
-0.46
-0.04
0.38
0.67
0.75
0.69
0.59
0.59
0.67
0.75
0.73
0.57
0.36
0.20
0.22
0.41
0.66
0.81
0.76
0.51
0.16
-0.20
-0.48
-0.70
-0.88
-1.05
-1.16
-1.13
-0.88
-0.42
0.15
0.67
0.99
1.08
0.97
0.76
0.57
0.44
0.40
0.41
0.44
0.46
0.46
0.43
0.36
0.24
0.10
-0.02
-0.08
-0.09
-0.05
0.02
0.07
0.11
0.14
0.18
0.22
0.25
0.21
0.06
-0.21
-0.55
-0.90
-1.15
-1.25
-1.17
-0.97
-0.72
-0.51
-0.36
-0.30
-0.27
-0.23
-0.12
0.08
0.38
0.78
1.21
1.60
1.87
1.98
1.92
1.74
1.51
1.27
1.03
0.76
0.45
0.12
-0.22
-0.54
-0.82
-1.01
-1.09
-1.03
-0.82
-0.52
-0.20
0.03
0.09
0.01
-0.12
-0.21
-0.21
-0.16
-0.16
-0.30
-0.57
-0.89
-1.12
-1.16
-1.05
-0.90
-0.83
-0.90
-1.08
-1.24
-1.27
-1.14
-0.90
-0.65
-0.47
-0.32
-0.12
0.23
0.72
1.25
1.67
1.85
1.74
1.46
1.15
0.95
0.90
0.95
0.98
0.90
0.67
0.32
-0.03
-0.28
-0.34
-0.22
0.01
0.25
0.40
0.42
0.35
0.23
0.10
-0.07
-0.32
-0.66
-1.02
-1.29
-1.34
-1.12
-0.74
-0.37
-0.17
-0.17
-0.29
-0.37
-0.26
0.01
0.34
0.57
0.58
0.44
0.29
0.28
0.49
0.86
1.21
1.40
1.33
1.07
0.75
0.52
0.44
0.51
0.68
0.87
1.05
1.21
1.38
1.57
1.74
1.88
1.94
1.92
1.88
1.89
2.05
2.38
2.86
3.39
3.82
4.03
3.98
3.75
3.52
3.45
3.66
4.08
4.55
4.89
5.00
4.96
4.99
5.39
6.33
7.81
9.53
11.00
11.68
11.09
8.99
5.47
0.91
-4.13
-9.09
-13.52
-17.20
-20.07
-22.11
-23.28
-23.53
-22.81
-21.22
-18.95
-16.32
-13.63
-11.14
-9.00
-7.30
-6.04
-5.14
-4.41
-3.59
-2.43
-0.79
1.23
3.33
5.02
5.92
5.88
5.10
4.19
3.87
4.77
7.04
10.25
13.53
15.92
16.78
16.07
14.28
12.13
10.16
8.55
7.12
5.59
3.83
1.92
0.12
-1.35
-2.48
-3.43
-4.45
-5.66
-6.99
-8.17
-8.84
-8.69
-7.65
-5.88
-3.80
-1.92
-0.69
-0.30
-0.66
-1.42
-2.17
-2.62
-2.73
-2.74
-2.97
-3.64
-4.74
-6.01
-7.12
-7.80
-8.03
-7.98
-7.91
-7.94
-7.99
-7.87
-7.36
-6.45
-5.36
-4.54
-4.42
-5.36
-7.39
-10.24
-13.36
-16.06
-17.78
-18.26
-17.76
-17.03
-17.09
-18.78
-22.37
-27.39
-32.76
-37.25
-40.09
-41.26
-41.56
-42.27
-44.58
-49.08
-55.66
-63.48
-71.33
-77.96
-82.42
-84.26
-83.83
-82.16
-80.75
-80.97
-83.54
-88.01
-92.77
-95.44
-93.96
-87.81
-78.66
-70.05
-65.73
-67.56
-74.00
-80.18
-79.54
-66.41
-38.38
2.64
51.09
99.67
141.61
172.34
190.09
195.52
190.86
178.94
162.62
144.35
126.04
109.25
95.17
84.58
77.53
73.23
70.17
66.66
61.53
54.63
46.85
39.61
34.27
31.41
30.63
30.82
30.63
29.13
26.12
22.17
18.26
15.29
13.72
13.34
13.52
13.45
12.56
10.71
8.20
5.53
3.22
1.54
0.48
-0.15
-0.69
-1.35
-2.25
-3.31
-4.32
-5.05
-5.32
-5.05
-4.34
-3.44
-2.66
-2.29
-2.47
-3.11
-3.94
-4.67
-5.03
-4.98
-4.64
-4.24
-3.97
-3.89
-3.92
-3.91
-3.72
-3.27
-2.59
-1.74
-0.83
0.02
0.71
1.16
1.36
1.37
1.32
1.35
1.52
1.80
2.07
2.21
2.15
1.91
1.59
1.29
1.08
0.99
1.01
1.09
1.19
1.27
1.28
1.19
1.01
0.77
0.51
0.27
0.02
-0.25
-0.57
-0.90
-1.15
-1.25
-1.15
-0.91
-0.58
-0.25
0.02
0.21
0.31
0.33
0.25
0.09
-0.14
-0.36
-0.50
-0.53
-0.44
-0.28
-0.11
-0.01
0.03
0.02
0.02
0.04
0.08
0.11
0.12
0.10
0.09
0.13
0.25
0.42
0.60
0.73
0.79
0.79
0.75
0.72
0.72
0.76
0.80
0.75
0.54
0.09
-0.59
-1.38
-2.09
-2.51
-2.53
-2.18
-1.58
-0.92
-0.35
0.08
0.37
0.53
0.59
0.53
0.38
0.21
0.09
0.07
0.14
0.23
0.25
0.19
0.07
-0.02
-0.03
0.08
0.26
0.43
0.54
0.55
0.49
0.40
0.35
0.34
0.35
0.35
0.30
0.20
0.09
0.03
0.06
0.16
0.27
0.32
0.27
0.16
0.10
0.16
0.36
0.63
0.81
0.81
0.56
0.16
-0.27
-0.57
-0.72
-0.77
-0.78
-0.83
-0.88
-0.86
-0.70
-0.44
-0.16
0.06
0.15
0.16
0.13
0.07
-0.02
-0.19
-0.39
-0.56
-0.61
-0.47
-0.22
0.02
0.09
-0.06
-0.36
-0.63
-0.73
-0.60
-0.32
0.02
0.29
0.45
0.55
0.66
0.83
1.04
1.21
1.21
0.96
0.49
-0.09
-0.61
-0.93
-0.99
-0.84
-0.60
-0.35
-0.14
0.10
0.41
0.77
1.11
1.33
1.34
1.15
0.85
0.54
0.29
0.10
-0.09
-0.32
-0.58
-0.85
-1.01
-0.98
-0.70
-0.21
0.33
0.74
0.85
0.61
0.13
-0.37
-0.71
-0.81
-0.74
-0.64
-0.61
-0.66
-0.72
-0.70
-0.58
-0.43
-0.35
-0.38
-0.46
-0.51
-0.41
-0.16
0.20
0.57
0.85
1.00
1.02
0.96
0.87
0.81
0.81
0.85
0.91
0.93
0.90
0.76
0.51
0.16
-0.25
-0.62
-0.87
-0.94
-0.84
-0.66
-0.54
-0.56
-0.69
-0.81
-0.80
-0.59
-0.27
-0.00
0.06
-0.12
-0.42
-0.65
-0.67
-0.44
-0.01
0.48
0.94
1.30
1.54
1.64
1.58
1.35
0.99
0.56
0.13
-0.22
-0.51
-0.74
-0.95
-1.12
-1.18
-1.08
-0.81
-0.43
-0.04
0.25
0.40
0.40
0.31
0.19
0.09
0.03
0.02
0.03
0.06
0.06
0.03
-0.03
-0.11
-0.22
-0.38
-0.61
-0.89
-1.15
-1.32
-1.35
-1.22
-0.96
-0.64
-0.29
0.06
0.34
0.49
0.41
0.08
-0.45
-1.00
-1.36
-1.40
-1.11
-0.62
-0.10
0.33
0.61
0.74
0.73
0.60
0.39
0.14
-0.07
-0.17
-0.17
-0.10
0.00
0.11
0.24
0.42
0.62
0.80
0.87
0.82
0.68
0.55
0.50
0.53
0.57
0.54
0.44
0.30
0.22
0.27
0.46
0.72
0.96
1.08
1.05
0.87
0.54
0.10
-0.41
-0.95
-1.45
-1.84
-2.06
-2.09
-1.95
-1.72
-1.48
-1.30
-1.15
-0.99
-0.78
-0.52
-0.28
-0.12
-0.06
-0.08
-0.11
-0.13
-0.14
-0.18
-0.26
-0.32
-0.30
-0.18
0.02
0.25
0.55
1.03
1.81
2.92
4.19
5.27
5.86
5.80
5.20
4.33
3.46
2.71
2.05
1.40
0.75
0.19
-0.14
-0.19
0.01
0.29
0.51
0.52
0.27
-0.20
-0.78
-1.35
-1.78
-2.02
-2.06
-1.98
-1.86
-1.74
-1.56
-1.26
-0.82
-0.30
0.15
0.38
0.36
0.16
-0.06
-0.16
-0.08
0.10
0.28
0.37
0.34
0.18
-0.06
-0.36
-0.71
-1.06
-1.38
-1.64
-1.78
-1.78
-1.65
-1.39
-1.04
-0.67
-0.37
-0.22
-0.26
-0.47
-0.74
-0.93
-0.97
-0.85
-0.68
-0.56
-0.57
-0.74
-0.98
-1.22
-1.37
-1.35
-1.13
-0.71
-0.15
0.45
0.97
1.26
1.26
0.98
0.54
0.07
-0.32
-0.60
-0.77
-0.86
-0.90
-0.89
-0.82
-0.69
-0.54
-0.40
-0.30
-0.22
-0.13
-0.01
0.10
0.16
0.12
-0.00
-0.13
-0.15
0.03
0.38
0.82
1.20
1.38
1.29
0.96
0.48
-0.03
-0.47
-0.77
-0.91
-0.95
-0.95
-1.00
-1.09
-1.18
-1.17
-0.96
-0.55
-0.04
0.45
0.82
1.05
1.16
1.17
1.09
0.92
0.67
0.43
0.30
0.37
0.61
0.93
1.19
1.30
1.23
1.04
0.80
0.52
0.21
-0.15
-0.51
-0.82
-0.98
-0.99
-0.85
-0.66
-0.47
-0.32
-0.22
-0.14
-0.10
-0.10
-0.17
-0.27
-0.34
-0.31
-0.13
0.17
0.49
0.72
0.78
0.71
0.62
0.62
0.73
0.92
1.09
1.16
1.12
0.99
0.81
0.56
0.24
-0.16
-0.56
-0.85
-0.90
-0.67
-0.24
0.27
0.68
0.92
0.98
0.92
0.82
0.72
0.62
0.49
0.31
0.08
-0.19
-0.47
-0.73
-0.95
-1.10
-1.16
-1.11
-0.90
-0.54
-0.05
0.52
1.04
1.44
1.61
1.56
1.33
0.99
0.63
0.33
0.14
0.05
0.09
0.20
0.34
0.43
0.41
0.25
-0.03
-0.36
-0.64
-0.82
-0.87
-0.79
-0.62
-0.42
-0.23
-0.09
-0.05
-0.15
-0.37
-0.70
-1.05
-1.31
-1.40
-1.26
-0.92
-0.46
0.01
0.36
0.50
0.41
0.13
-0.23
-0.53
-0.63
-0.46
-0.05
0.47
0.92
1.14
1.05
0.74
0.37
0.11
0.09
0.33
0.72
1.11
1.35
1.34
1.09
0.65
0.15
-0.32
-0.71
-1.02
-1.29
-1.54
-1.77
-1.90
-1.85
-1.58
-1.13
-0.63
-0.20
0.06
0.15
0.13
0.11
0.15
0.24
0.30
0.24
0.03
-0.31
-0.65
-0.92
-1.05
-1.07
-1.05
-1.04
-1.06
-1.05
-0.95
-0.70
-0.32
0.14
0.56
0.82
0.86
0.70
0.44
0.23
0.24
0.56
1.18
1.95
2.67
3.12
3.20
2.88
2.27
1.52
0.75
0.07
-0.47
-0.79
-0.87
-0.68
-0.26
0.27
0.73
0.98
0.96
0.70
0.35
0.02
-0.22
-0.36
-0.45
-0.51
-0.53
-0.52
-0.46
-0.38
-0.31
-0.27
-0.24
-0.19
-0.08
0.06
0.18
0.23
0.18
0.07
-0.03
-0.03
0.10
0.30
0.51
0.59
0.44
0.06
-0.49
-1.08
-1.54
-1.76
-1.73
-1.50
-1.21
-1.00
-0.97
-1.12
-1.41
-1.72
-1.92
-1.89
-1.58
-1.04
-0.38
0.18
0.49
0.47
0.21
-0.14
-0.39
-0.44
-0.32
-0.13
-0.01
0.00
-0.05
-0.07
0.01
0.18
0.35
0.38
0.23
-0.10
-0.47
-0.72
-0.75
-0.51
-0.08
0.43
0.94
1.39
1.79
2.07
2.15
1.90
1.25
0.24
-0.91
-1.90
-2.47
-2.49
-2.05
-1.38
-0.72
-0.23
0.08
0.29
0.52
0.84
1.21
1.52
1.68
1.65
1.44
1.16
0.89
0.71
0.61
0.52
0.36
0.09
-0.26
-0.60
-0.83
-0.88
-0.75
-0.51
-0.24
0.00
0.22
0.42
0.64
0.85
0.96
0.90
0.64
0.25
-0.16
-0.43
-0.46
-0.21
0.22
0.71
1.10
1.28
1.23
0.99
0.64
0.26
-0.07
-0.31
-0.43
-0.43
-0.35
-0.18
0.04
0.30
0.58
0.83
0.97
0.94
0.70
0.32
-0.10
-0.42
-0.55
-0.46
-0.25
-0.03
0.11
0.12
0.01
-0.20
-0.47
-0.75
-0.99
-1.14
-1.15
-1.04
-0.87
-0.67
-0.48
-0.27
-0.03
0.25
0.49
0.61
0.55
0.33
0.05
-0.20
-0.33
-0.32
-0.24
-0.15
-0.09
-0.06
-0.04
-0.03
-0.05
-0.13
-0.31
-0.54
-0.74
-0.85
-0.82
-0.67
-0.50
-0.40
-0.38
-0.37
-0.24
0.09
0.60
1.14
1.50
1.53
1.21
0.67
0.13
-0.26
-0.44
-0.49
-0.50
-0.53
-0.58
-0.59
-0.49
-0.30
-0.07
0.08
0.09
-0.02
-0.16
-0.21
-0.08
0.19
0.51
0.76
0.83
0.73
0.50
0.25
0.05
-0.05
-0.03
0.07
0.23
0.44
0.65
0.84
0.98
1.01
0.92
0.70
0.39
0.08
-0.12
-0.15
-0.01
0.23
0.42
0.47
0.35
0.12
-0.08
-0.15
-0.08
0.05
0.13
0.11
-0.02
-0.18
-0.31
-0.39
-0.39
-0.31
-0.13
0.11
0.36
0.51
0.47
0.23
-0.12
-0.41
-0.51
-0.38
-0.13
0.10
0.21
0.18
0.11
0.10
0.16
0.24
0.24
0.12
-0.11
-0.40
-0.66
-0.81
-0.81
-0.66
-0.39
-0.03
0.33
0.62
0.76
0.70
0.48
0.14
-0.22
-0.49
-0.61
-0.55
-0.34
-0.06
0.19
0.32
0.30
0.15
-0.06
-0.26
-0.40
-0.48
-0.54
-0.58
-0.62
-0.66
-0.66
-0.62
-0.51
-0.35
-0.12
0.15
0.45
0.74
0.97
1.09
1.05
0.85
0.55
0.20
-0.11
-0.32
-0.41
-0.42
-0.39
-0.38
-0.41
-0.47
-0.49
-0.42
-0.25
0.01
0.28
0.49
0.59
0.56
0.42
0.23
0.04
-0.10
-0.18
-0.17
-0.09
0.04
0.21
0.39
0.55
0.63
0.59
0.39
0.05
-0.33
-0.62
-0.68
-0.45
-0.01
0.45
0.72
0.68
0.37
-0.05
-0.35
-0.37
-0.15
0.16
0.33
0.21
-0.17
-0.64
-0.98
-1.02
-0.75
-0.31
0.14
0.45
0.59
0.60
0.53
0.40
0.21
-0.04
-0.29
-0.46
-0.45
-0.22
0.14
0.51
0.73
0.74
0.54
0.20
-0.17
-0.50
-0.74
-0.85
-0.83
-0.73
-0.58
-0.47
-0.43
-0.42
-0.37
-0.22
0.08
0.45
0.78
0.96
0.93
0.70
0.36
0.03
-0.23
-0.38
-0.42
-0.33
-0.14
0.13
0.45
0.71
0.82
0.69
0.36
-0.08
-0.46
-0.62
-0.50
-0.18
0.19
0.48
0.57
0.48
0.28
0.08
-0.05
-0.07
-0.03
0.05
0.12
0.18
0.27
0.41
0.57
0.69
0.64
0.33
-0.19
-0.80
-1.27
-1.44
-1.29
-0.95
-0.62
-0.48
-0.54
-0.66
-0.68
-0.48
-0.10
0.32
0.63
0.77
0.77
0.73
0.73
0.79
0.81
0.73
0.48
0.14
-0.17
-0.35
-0.38
-0.33
-0.30
-0.34
-0.43
-0.49
-0.40
-0.14
0.24
0.62
0.86
0.90
0.76
0.54
0.35
0.24
0.21
0.16
0.01
-0.27
-0.62
-0.91
-1.00
-0.84
-0.49
-0.10
0.12
0.07
-0.22
-0.59
-0.83
-0.83
-0.55
-0.09
0.41
0.84
1.16
1.34
1.40
1.34
1.13
0.79
0.33
-0.18
-0.63
-0.90
-0.92
-0.67
-0.23
0.25
0.60
0.73
0.64
0.42
0.19
0.06
0.01
-0.01
-0.06
-0.12
-0.15
-0.08
0.11
0.37
0.60
0.70
0.64
0.46
0.25
0.09
0.00
-0.01
-0.00
0.02
0.03
0.04
0.05
0.06
0.03
-0.06
-0.25
-0.56
-0.92
-1.25
-1.42
-1.35
-1.04
-0.59
-0.17
0.08
0.09
-0.06
-0.23
-0.30
-0.22
-0.05
0.10
0.15
0.08
-0.02
-0.08
-0.06
0.02
0.08
0.05
-0.07
-0.20
-0.26
-0.22
-0.13
-0.10
-0.22
-0.48
-0.76
-0.91
-0.80
-0.41
0.14
0.72
1.20
1.52
1.69
1.77
1.81
1.81
1.78
1.67
1.47
1.12
0.60
-0.05
-0.75
-1.37
-1.80
-1.95
-1.84
-1.53
-1.16
-0.86
-0.70
-0.74
-0.95
-1.21
-1.40
-1.44
-1.27
-0.96
-0.59
-0.24
0.06
0.32
0.54
0.69
0.71
0.53
0.18
-0.22
-0.52
-0.58
-0.38
-0.01
0.42
0.78
0.99
1.03
0.93
0.74
0.54
0.39
0.34
0.40
0.52
0.63
0.66
0.59
0.42
0.21
0.01
-0.13
-0.21
-0.24
-0.24
-0.19
-0.06
0.18
0.49
0.80
0.97
0.92
0.64
0.22
-0.16
-0.35
-0.27
0.00
0.36
0.66
0.83
0.88
0.82
0.67
0.42
0.08
-0.31
-0.66
-0.86
-0.87
-0.69
-0.41
-0.12
0.09
0.23
0.29
0.30
0.23
0.07
-0.16
-0.40
-0.55
-0.53
-0.36
-0.12
0.11
0.24
0.25
0.17
0.05
-0.03
-0.05
-0.01
0.03
0.02
-0.04
-0.12
-0.17
-0.13
0.02
0.20
0.33
0.33
0.18
-0.06
-0.30
-0.46
-0.51
-0.46
-0.36
-0.26
-0.18
-0.14
-0.14
-0.19
-0.32
-0.53
-0.81
-1.09
-1.27
-1.27
-1.08
-0.75
-0.38
-0.08
0.10
0.16
0.14
0.10
0.03
-0.06
-0.15
-0.21
-0.17
0.00
0.25
0.47
0.58
0.57
0.48
0.38
0.31
0.27
0.18
0.04
-0.12
-0.19
-0.11
0.14
0.48
0.80
0.97
0.96
0.77
0.45
0.06
-0.31
-0.54
-0.54
-0.27
0.20
0.70
1.03
1.06
0.79
0.32
-0.17
-0.56
-0.78
-0.84
-0.70
-0.37
0.17
0.88
1.66
2.31
2.68
2.66
2.28
1.65
0.97
0.38
-0.00
-0.16
-0.11
0.11
0.44
0.87
1.33
1.79
2.17
2.41
2.50
2.50
2.49
2.58
2.80
3.08
3.31
3.32
3.03
2.42
1.58
0.70
-0.08
-0.65
-1.02
-1.23
-1.42
-1.63
-1.93
-2.29
-2.68
-3.04
-3.32
-3.47
-3.46
-3.28
-3.00
-2.69
-2.44
-2.26
-2.14
-1.99
-1.74
-1.39
-1.01
-0.71
-0.59
-0.65
-0.79
-0.89
-0.84
-0.65
-0.40
-0.21
-0.17
-0.27
-0.46
-0.67
-0.88
-1.12
-1.39
-1.69
-1.91
-1.99
-1.88
-1.58
-1.15
-0.68
-0.22
0.17
0.43
0.49
0.36
0.10
-0.12
-0.17
0.00
0.32
0.62
0.75
0.67
0.43
0.16
-0.01
-0.07
-0.07
-0.09
-0.17
-0.29
-0.38
-0.37
-0.24
-0.03
0.19
0.37
0.47
0.50
0.50
0.51
0.54
0.58
0.62
0.63
0.60
0.54
0.46
0.39
0.34
0.33
0.34
0.35
0.35
0.32
0.28
0.23
0.19
0.17
0.16
0.16
0.16
0.16
0.15
0.13
0.11
0.09
0.08
0.07
0.07
0.07
0.06
0.06
0.05
0.04
0.04
0.03
0.03
0.03
0.03
0.02
0.02
0.02
0.01
0.01
0.01
0.01
0.01
0.01
0.01
0.01
0.01
0.01
0.01
0.01
0.01
0.01
0.01
0.01
0.01
0.01
0.01
0.01
0.01
0.01
0.01
0.01
0.01
0.01
0.01
0.01
0.01
0.01
0.01
0.01
0.01
0.01
0.01
0.01
0.01
0.01
0.01
0.01
0.01
0.01
0.01
0.01
0.01
0.01
0.01
0.01
0.01
0.01
0.01
0.01
0.01
0.01
0.01
0.01
0.01
0.01
0.01
0.01
0.01
0.01
0.01
0.01
0.01
0.01
0.01
0.01
0.01
0.01
0.01
0.01
0.01
0.01
0.01
0.01
0.01
0.01
0.01
0.01
0.01
0.01
0.01
0.01
0.01
0.01
0.01
0.01
0.01
0.01
0.01
0.01
0.01
0.01
0.01
0.01
0.01
0.01
0.01
0.01
0.01
0.01
0.01
0.01
0.01
0.01
0.01
0.01
0.01
0.01
0.01
0.01
0.01
0.01
0.01
0.01
0.01
0.01
0.01
0.01
0.01
0.01
0.01
0.01
0.01
0.01
0.01
0.01
0.01
0.01
0.01
0.01
0.01
0.01
0.01
0.01
0.01
0.01
0.01
0.01
0.01
0.01
0.01
0.01
0.01
0.01
0.01
0.01
0.01
0.01
0.01
0.01
0.01
0.01
0.01
0.01
0.01
0.00
-0.00
-0.00
-0.00
-0.00
-0.00
-0.00
-0.00
-0.01
-0.01
-0.01
-0.02
-0.02
-0.01
-0.01
-0.01
-0.01
-0.02
-0.04
-0.05
-0.06
-0.06
-0.05
-0.05
-0.04
-0.05
-0.07
-0.10
-0.13
-0.14
-0.14
-0.13
-0.12
-0.11
-0.12
-0.15
-0.20
-0.25
-0.27
-0.27
-0.25
-0.23
-0.22
-0.24
-0.30
-0.37
-0.42
-0.44
-0.42
-0.37
-0.30
-0.23
-0.15
-0.07
0.01
0.06
0.07
0.03
-0.04
-0.09
-0.09
-0.01
0.12
0.29
0.43
0.54
0.63
0.72
0.83
0.94
0.99
0.93
0.75
0.49
0.21
0.02
-0.05
0.01
0.20
0.45
0.74
1.00
1.20
1.31
1.35
1.37
1.44
1.58
1.76
1.89
1.88
1.70
1.38
1.03
0.73
0.48
0.20
-0.18
-0.65
-1.09
-1.33
-1.26
-0.92
-0.48
-0.15
-0.09
-0.29
-0.61
-0.88
-0.94
-0.79
-0.50
-0.23
-0.07
-0.04
-0.11
-0.20
-0.26
-0.25
-0.15
-0.01
0.13
0.21
0.17
0.00
-0.24
-0.45
-0.53
-0.45
-0.25
-0.08
-0.11
-0.42
-0.97
-1.59
-2.05
-2.18
-1.92
-1.36
-0.69
-0.12
0.20
0.25
0.10
-0.11
-0.28
-0.36
-0.41
-0.48
-0.64
-0.85
-1.04
-1.14
-1.10
-0.95
-0.75
-0.55
-0.36
-0.17
0.01
0.15
0.23
0.22
0.11
-0.04
-0.16
-0.17
-0.06
0.15
0.38
0.56
0.66
0.68
0.65
0.60
0.56
0.56
0.61
0.72
0.87
1.02
1.12
1.14
1.08
0.95
0.79
0.63
0.46
0.29
0.12
-0.04
-0.16
-0.25
-0.32
-0.44
-0.62
-0.89
-1.19
-1.43
-1.55
-1.50
-1.27
-0.90
-0.46
0.00
0.41
0.72
0.89
0.94
0.90
0.86
0.85
0.87
0.86
0.72
0.46
0.14
-0.13
-0.23
-0.13
0.11
0.39
0.63
0.78
0.82
0.77
0.65
0.49
0.32
0.18
0.09
0.08
0.15
0.29
0.49
0.72
0.93
1.06
1.04
0.89
0.65
0.41
0.24
0.13
0.02
-0.17
-0.45
-0.79
-1.07
-1.18
-1.05
-0.72
-0.26
0.19
0.56
0.77
0.83
0.76
0.58
0.34
0.03
-0.28
-0.56
-0.74
-0.80
-0.73
-0.58
-0.41
-0.31
-0.29
-0.36
-0.47
-0.54
-0.53
-0.44
-0.35
-0.33
-0.46
-0.72
-1.01
-1.23
-1.27
-1.15
-0.96
-0.82
-0.82
-0.95
-1.12
-1.20
-1.12
-0.91
-0.61
-0.28
0.06
0.42
0.82
1.27
1.72
2.09
2.30
2.32
2.16
1.88
1.57
1.28
1.05
0.85
0.67
0.46
0.23
-0.02
-0.22
-0.35
-0.36
-0.26
-0.09
0.08
0.20
0.23
0.19
0.11
0.01
-0.08
-0.19
-0.31
-0.45
-0.56
-0.60
-0.59
-0.55
-0.56
-0.60
-0.63
-0.55
-0.32
0.01
0.31
0.40
0.20
-0.24
-0.76
-1.11
-1.16
-0.85
-0.33
0.20
0.55
0.62
0.44
0.10
-0.26
-0.53
-0.69
-0.74
-0.74
-0.69
-0.60
-0.46
-0.25
0.03
0.32
0.56
0.69
0.67
0.50
0.23
-0.07
-0.31
-0.40
-0.33
-0.13
0.15
0.41
0.61
0.71
0.71
0.63
0.52
0.42
0.36
0.37
0.45
0.57
0.71
0.80
0.80
0.70
0.51
0.25
-0.02
-0.28
-0.47
-0.59
-0.63
-0.60
-0.55
-0.53
-0.56
-0.67
-0.84
-1.00
-1.14
-1.21
-1.24
-1.20
-1.08
-0.85
-0.49
-0.07
0.30
0.52
0.54
0.46
0.43
0.59
0.99
1.52
2.01
2.30
2.34
2.17
1.87
1.52
1.18
0.82
0.46
0.09
-0.25
-0.51
-0.63
-0.61
-0.48
-0.31
-0.21
-0.25
-0.46
-0.77
-1.05
-1.21
-1.20
-1.08
-0.97
-0.93
-0.96
-0.98
-0.88
-0.62
-0.26
0.08
0.26
0.24
0.06
-0.18
-0.37
-0.46
-0.49
-0.51
-0.56
-0.64
-0.71
-0.70
-0.58
-0.35
-0.07
0.19
0.36
0.41
0.36
0.26
0.20
0.23
0.37
0.60
0.86
1.08
1.19
1.18
1.04
0.82
0.55
0.30
0.10
-0.01
-0.02
0.06
0.22
0.47
0.76
1.08
1.35
1.52
1.55
1.44
1.21
0.94
0.65
0.37
0.09
-0.20
-0.49
-0.75
-0.95
-1.08
-1.14
-1.16
-1.20
-1.27
-1.39
-1.51
-1.58
-1.56
-1.42
-1.21
-1.01
-0.89
-0.89
-0.98
-1.08
-1.12
-1.07
-0.92
-0.68
-0.41
-0.12
0.15
0.37
0.53
0.64
0.72
0.79
0.91
1.07
1.24
1.39
1.43
1.32
1.06
0.72
0.40
0.19
0.14
0.23
0.36
0.45
0.45
0.37
0.27
0.22
0.22
0.25
0.30
0.35
0.39
0.42
0.42
0.36
0.21
0.01
-0.18
-0.30
-0.33
-0.30
-0.26
-0.26
-0.32
-0.42
-0.57
-0.74
-0.92
-1.08
-1.13
-1.00
-0.66
-0.16
0.36
0.73
0.87
0.80
0.63
0.48
0.45
0.50
0.58
0.57
0.47
0.31
0.15
0.07
0.06
0.10
0.14
0.17
0.19
0.21
0.25
0.29
0.29
0.20
0.03
-0.16
-0.28
-0.26
-0.08
0.16
0.31
0.23
-0.13
-0.71
-1.34
-1.82
-2.01
-1.87
-1.45
-0.88
-0.27
0.26
0.68
0.97
1.15
1.25
1.27
1.20
1.01
0.73
0.43
0.22
0.16
0.26
0.41
0.48
0.34
-0.03
-0.53
-1.02
-1.34
-1.43
-1.31
-1.07
-0.86
-0.76
-0.81
-0.96
-1.09
-1.09
-0.91
-0.55
-0.11
0.32
0.68
0.96
1.15
1.24
1.20
1.00
0.65
0.25
-0.10
-0.32
-0.37
-0.32
-0.21
-0.09
0.07
0.30
0.58
0.80
0.87
0.75
0.52
0.34
0.35
0.58
0.92
1.16
1.13
0.79
0.28
-0.21
-0.52
-0.59
-0.55
-0.55
-0.71
-0.99
-1.27
-1.38
-1.23
-0.87
-0.43
-0.06
0.15
0.21
0.18
0.13
0.06
-0.07
-0.25
-0.46
-0.61
-0.59
-0.38
-0.02
0.34
0.53
0.47
0.20
-0.16
-0.44
-0.50
-0.35
-0.07
0.18
0.29
0.24
0.09
-0.07
-0.16
-0.16
-0.11
-0.03
0.04
0.10
0.15
0.21
0.24
0.24
0.22
0.20
0.27
0.46
0.78
1.11
1.34
1.33
1.08
0.67
0.28
0.06
0.06
0.15
0.15
-0.09
-0.58
-1.18
-1.62
-1.73
-1.45
-0.89
-0.27
0.21
0.46
0.49
0.41
0.32
0.28
0.28
0.29
0.28
0.23
0.11
-0.07
-0.31
-0.58
-0.80
-0.92
-0.91
-0.78
-0.63
-0.55
-0.54
-0.59
-0.61
-0.52
-0.28
0.06
0.44
0.82
1.15
1.42
1.62
1.71
1.67
1.46
1.14
0.80
0.54
0.44
0.49
0.58
0.60
0.46
0.16
-0.19
-0.45
-0.56
-0.51
-0.38
-0.28
-0.25
-0.26
-0.27
-0.22
-0.10
0.04
0.17
0.26
0.31
0.33
0.36
0.40
0.42
0.36
0.18
-0.13
-0.48
-0.76
-0.80
-0.57
-0.14
0.33
0.65
0.71
0.53
0.21
-0.13
-0.40
-0.57
-0.63
-0.62
-0.54
-0.44
-0.34
-0.28
-0.31
-0.45
-0.70
-1.03
-1.40
-1.74
-1.95
-1.94
-1.65
-1.12
-0.49
0.09
0.46
0.62
0.65
0.66
0.75
0.93
1.15
1.31
1.33
1.16
0.81
0.32
-0.24
-0.78
-1.20
-1.45
-1.51
-1.39
-1.17
-0.91
-0.64
-0.40
-0.17
0.05
0.26
0.44
0.57
0.66
0.71
0.74
0.75
0.77
0.79
0.82
0.86
0.91
0.95
0.98
0.96
0.87
0.72
0.55
0.40
0.32
0.31
0.39
0.55
0.77
1.02
1.25
1.41
1.45
1.32
1.05
0.65
0.21
-0.20
-0.53
-0.75
-0.87
-0.92
-0.94
-0.96
-0.94
-0.86
-0.70
-0.49
-0.30
-0.22
-0.28
-0.47
-0.70
-0.92
-1.07
-1.18
-1.24
-1.24
-1.14
-0.91
-0.58
-0.22
0.08
0.27
0.39
0.48
0.57
0.63
0.59
0.43
0.14
-0.18
-0.45
-0.60
-0.62
-0.55
-0.43
-0.28
-0.10
0.11
0.33
0.55
0.71
0.79
0.76
0.62
0.36
0.03
-0.30
-0.52
-0.59
-0.50
-0.33
-0.19
-0.14
-0.17
-0.20
-0.12
0.12
0.51
0.97
1.38
1.67
1.82
1.86
1.77
1.53
1.15
0.65
0.15
-0.19
-0.29
-0.13
0.14
0.33
0.31
0.07
-0.29
-0.62
-0.80
-0.82
-0.73
-0.61
-0.51
-0.44
-0.37
-0.29
-0.24
-0.24
-0.31
-0.43
-0.55
-0.60
-0.54
-0.37
-0.11
0.20
0.54
0.85
1.09
1.19
1.12
0.86
0.48
0.06
-0.30
-0.51
-0.54
-0.43
-0.28
-0.19
-0.23
-0.41
-0.62
-0.74
-0.65
-0.30
0.22
0.74
1.07
1.07
0.75
0.20
-0.40
-0.91
-1.24
-1.39
-1.40
-1.31
-1.16
-0.93
-0.65
-0.35
-0.10
0.02
-0.01
-0.14
-0.28
-0.33
-0.24
-0.06
0.14
0.27
0.32
0.30
0.29
0.32
0.40
0.50
0.57
0.60
0.58
0.54
0.51
0.51
0.50
0.43
0.27
0.02
-0.26
-0.48
-0.51
-0.32
0.06
0.50
0.82
0.91
0.75
0.43
0.08
-0.18
-0.36
-0.49
-0.64
-0.80
-0.91
-0.89
-0.72
-0.44
-0.13
0.12
0.28
0.36
0.40
0.45
0.47
0.46
0.36
0.19
-0.01
-0.16
-0.20
-0.07
0.18
0.46
0.68
0.75
0.65
0.43
0.19
-0.01
-0.15
-0.23
-0.28
-0.29
-0.25
-0.15
0.02
0.18
0.27
0.26
0.16
0.03
-0.07
-0.09
-0.02
0.14
0.33
0.48
0.51
0.39
0.14
-0.17
-0.45
-0.63
-0.66
-0.59
-0.49
-0.43
-0.46
-0.61
-0.82
-1.05
-1.27
-1.44
-1.52
-1.47
-1.24
-0.84
-0.34
0.12
0.42
0.48
0.37
0.21
0.10
0.11
0.21
0.34
0.43
0.50
0.59
0.73
0.91
1.07
1.12
1.06
0.90
0.72
0.56
0.43
0.32
0.20
0.06
-0.06
-0.12
-0.11
-0.01
0.13
0.29
0.39
0.41
0.35
0.23
0.09
-0.05
-0.18
-0.27
-0.30
-0.22
-0.05
0.19
0.44
0.60
0.67
0.65
0.59
0.53
0.50
0.48
0.44
0.39
0.33
0.25
0.14
-0.06
-0.37
-0.77
-1.19
-1.50
-1.61
-1.50
-1.23
-0.89
-0.59
-0.37
-0.23
-0.18
-0.21
-0.28
-0.38
-0.45
-0.45
-0.37
-0.23
-0.11
-0.06
-0.12
-0.25
-0.35
-0.32
-0.14
0.17
0.51
0.80
1.00
1.10
1.14
1.12
1.05
0.93
0.81
0.77
0.85
1.06
1.28
1.34
1.11
0.57
-0.13
-0.75
-1.07
-0.99
-0.57
-0.01
0.50
0.78
0.79
0.54
0.14
-0.32
-0.76
-1.12
-1.37
-1.49
-1.47
-1.31
-1.03
-0.70
-0.37
-0.15
-0.06
-0.12
-0.28
-0.45
-0.54
-0.53
-0.39
-0.19
0.03
0.19
0.28
0.29
0.25
0.21
0.19
0.20
0.22
0.22
0.21
0.19
0.18
0.18
0.20
0.22
0.25
0.28
0.34
0.43
0.54
0.63
0.65
0.57
0.38
0.12
-0.14
-0.38
-0.57
-0.72
-0.84
-0.92
-0.91
-0.79
-0.55
-0.24
0.04
0.23
0.31
0.31
0.31
0.35
0.44
0.53
0.59
0.62
0.63
0.64
0.64
0.59
0.45
0.19
-0.13
-0.42
-0.61
-0.61
-0.45
-0.16
0.16
0.44
0.64
0.72
0.68
0.56
0.38
0.21
0.08
-0.01
-0.05
-0.08
-0.13
-0.17
-0.16
-0.02
0.29
0.73
1.20
1.57
